# OpenSignals Text File Format. Version 1
# {"84:BA:20:AE:BF:DA": {"position": 0, "device": "bitalino_rev", "device name": "84:BA:20:AE:BF:DA", "device connection": "BTH84:BA:20:AE:BF:DA", "sampling rate": 1000, "resolution": [4, 1, 1, 1, 1, 10, 10, 10, 10, 6, 6], "firmware version": 1282, "comments": "", "keywords": "", "mode": 0, "sync interval": 2, "date": "2025-11-30", "time": "17:44:18.540", "channels": [1, 2, 3, 4, 5, 6], "sensor": ["RAW", "RAW", "RAW", "RAW", "RAW", "RAW"], "label": ["A1", "A2", "A3", "A4", "A5", "A6"], "column": ["nSeq", "I1", "I2", "O1", "O2", "A1", "A2", "A3", "A4", "A5", "A6"], "special": [{}, {}, {}, {}, {}, {}], "digital IO": [0, 0, 1, 1]}}
# EndOfHeader
0	0	0	0	0	508	513	0	680	37	0	
1	0	0	0	0	507	511	0	686	37	0	
2	0	0	0	0	507	511	0	679	37	0	
3	0	0	0	0	512	513	0	661	37	0	
4	0	0	0	0	509	513	1	647	37	0	
5	0	0	0	0	507	511	0	652	37	0	
6	0	0	0	0	509	512	0	674	37	0	
7	0	0	0	0	514	511	0	684	37	0	
8	0	0	0	0	511	511	0	691	37	0	
9	0	0	0	0	513	511	0	692	37	0	
10	0	0	0	0	520	510	0	685	37	0	
11	0	0	0	0	515	512	0	671	37	0	
12	0	0	0	0	503	511	0	644	37	0	
13	0	0	0	0	508	511	0	614	37	0	
14	0	0	0	0	511	512	0	581	37	0	
15	0	0	0	0	511	513	0	549	37	0	
0	0	0	0	0	511	512	1	519	37	0	
1	0	0	0	0	505	512	0	493	37	0	
2	0	0	0	0	515	511	0	470	37	0	
3	0	0	0	0	509	511	0	454	37	0	
4	0	0	0	0	513	511	1	444	37	0	
5	0	0	0	0	513	510	0	444	37	0	
6	0	0	0	0	510	512	0	460	37	0	
7	0	0	0	0	512	513	0	471	37	0	
8	0	0	0	0	511	513	1	495	37	0	
9	0	0	0	0	509	512	0	530	37	0	
10	0	0	0	0	515	513	0	566	37	0	
11	0	0	0	0	509	513	0	590	37	0	
12	0	0	0	0	504	511	0	611	37	0	
13	0	0	0	0	504	513	0	626	37	0	
14	0	0	0	0	508	513	0	642	37	0	
15	0	0	0	0	510	513	0	652	37	0	
0	0	0	0	0	518	513	0	652	37	0	
1	0	0	0	0	511	510	0	643	37	0	
2	0	0	0	0	507	510	0	632	37	0	
3	0	0	0	0	508	512	0	622	37	0	
4	0	0	0	0	508	512	1	607	37	0	
5	0	0	0	0	501	513	0	593	37	0	
6	0	0	0	0	512	513	0	580	37	0	
7	0	0	0	0	506	514	0	561	37	0	
8	0	0	0	0	515	515	1	535	37	0	
9	0	0	0	0	512	514	0	512	37	0	
10	0	0	0	0	505	515	0	500	37	0	
11	0	0	0	0	510	515	0	490	37	0	
12	0	0	0	0	511	513	0	476	37	0	
13	0	0	0	0	511	513	0	464	37	0	
14	0	0	0	0	515	512	0	458	37	0	
15	0	0	0	0	510	513	0	461	37	0	
0	0	0	0	0	509	513	1	468	37	0	
1	0	0	0	0	508	510	0	485	37	0	
2	0	0	0	0	508	509	0	501	37	0	
3	0	0	0	0	510	509	0	504	37	0	
4	0	0	0	0	516	510	1	493	37	0	
5	0	0	0	0	511	510	0	480	37	0	
6	0	0	0	0	508	510	0	461	37	0	
7	0	0	0	0	509	514	0	436	37	0	
8	0	0	0	0	513	513	1	414	37	0	
9	0	0	0	0	510	512	0	391	37	0	
10	0	0	0	0	511	512	0	366	37	0	
11	0	0	0	0	508	511	0	346	37	0	
12	0	0	0	0	514	509	0	337	37	0	
13	0	0	0	0	503	510	0	347	37	0	
14	0	0	0	0	508	510	0	349	37	0	
15	0	0	0	0	507	513	0	380	37	0	
0	0	0	0	0	511	515	1	407	37	0	
1	0	0	0	0	511	513	0	442	37	0	
2	0	0	0	0	519	514	0	474	37	0	
3	0	0	0	0	512	514	0	499	37	0	
4	0	0	0	0	511	515	1	520	37	0	
5	0	0	0	0	512	514	0	545	37	0	
6	0	0	0	0	515	513	0	568	37	0	
7	0	0	0	0	509	514	0	579	37	0	
8	0	0	0	0	507	515	0	578	37	0	
9	0	0	0	0	512	514	0	571	37	0	
10	0	0	0	0	502	513	0	567	37	0	
11	0	0	0	0	511	514	0	565	37	0	
12	0	0	0	0	499	514	1	562	37	0	
13	0	0	0	0	515	515	0	563	37	0	
14	0	0	0	0	510	515	0	566	37	0	
15	0	0	0	0	508	514	0	566	37	0	
0	0	0	0	0	515	513	0	564	37	0	
1	0	0	0	0	513	514	0	560	37	0	
2	0	0	0	0	506	514	0	560	37	0	
3	0	0	0	0	509	515	0	559	37	0	
4	0	0	0	0	511	513	0	565	37	0	
5	0	0	0	0	512	512	0	583	37	0	
6	0	0	0	0	516	513	0	614	37	0	
7	0	0	0	0	512	514	0	650	37	0	
8	0	0	0	0	513	512	1	683	37	0	
9	0	0	0	0	511	514	0	702	37	0	
10	0	0	0	0	509	513	0	706	37	0	
11	0	0	0	0	512	514	0	694	37	0	
12	0	0	0	0	505	514	0	652	37	0	
13	0	0	0	0	507	514	0	596	37	0	
14	0	0	0	0	506	515	0	528	37	0	
15	0	0	0	0	512	515	0	461	37	0	
0	0	0	0	0	511	515	1	403	37	0	
1	0	0	0	0	508	512	0	360	37	0	
2	0	0	0	0	511	511	0	318	37	0	
3	0	0	0	0	507	515	0	294	37	0	
4	0	0	0	0	515	515	1	274	37	0	
5	0	0	0	0	515	513	0	250	37	0	
6	0	0	0	0	506	511	0	242	37	0	
7	0	0	0	0	511	510	0	245	37	0	
8	0	0	0	0	512	512	1	243	37	0	
9	0	0	0	0	509	512	0	245	37	0	
10	0	0	0	0	514	512	0	256	37	0	
11	0	0	0	0	510	514	0	279	37	0	
12	0	0	0	0	507	512	0	302	37	0	
13	0	0	0	0	505	512	0	324	37	0	
14	0	0	0	0	511	513	0	343	37	0	
15	0	0	0	0	513	513	0	358	37	0	
0	0	0	0	0	507	512	1	372	37	0	
1	0	0	0	0	511	512	0	388	37	0	
2	0	0	0	0	515	512	0	397	37	0	
3	0	0	0	0	514	512	0	413	37	0	
4	0	0	0	0	509	510	1	422	37	0	
5	0	0	0	0	514	509	0	431	37	0	
6	0	0	0	0	510	508	0	431	37	0	
7	0	0	0	0	504	509	0	431	37	0	
8	0	0	0	0	514	510	1	415	37	0	
9	0	0	0	0	506	509	0	410	37	0	
10	0	0	0	0	513	509	0	411	37	0	
11	0	0	0	0	500	511	0	409	37	0	
12	0	0	0	0	512	508	0	398	37	0	
13	0	0	0	0	507	508	0	385	37	0	
14	0	0	0	0	509	508	0	366	37	0	
15	0	0	0	0	511	510	0	343	37	0	
0	0	0	0	0	506	510	1	324	37	0	
1	0	0	0	0	515	509	0	325	37	0	
2	0	0	0	0	509	509	0	345	37	0	
3	0	0	0	0	512	509	0	372	37	0	
4	0	0	0	0	510	511	1	413	37	0	
5	0	0	0	0	503	512	0	458	37	0	
6	0	0	0	0	523	512	0	501	37	0	
7	0	0	0	0	504	513	0	538	37	0	
8	0	0	0	0	511	512	1	568	37	0	
9	0	0	0	0	502	511	0	592	37	0	
10	0	0	0	0	516	513	0	601	37	0	
11	0	0	0	0	507	513	0	588	37	0	
12	0	0	0	0	508	513	0	559	37	0	
13	0	0	0	0	518	512	0	520	37	0	
14	0	0	0	0	510	511	0	484	37	0	
15	0	0	0	0	513	513	0	443	37	0	
0	0	0	0	0	515	514	1	409	37	0	
1	0	0	0	0	505	514	0	386	37	0	
2	0	0	0	0	507	515	0	369	37	0	
3	0	0	0	0	515	512	0	356	37	0	
4	0	0	0	0	504	511	1	354	37	0	
5	0	0	0	0	508	512	0	355	37	0	
6	0	0	0	0	509	511	0	362	37	0	
7	0	0	0	0	510	510	0	378	37	0	
8	0	0	0	0	504	509	0	396	37	0	
9	0	0	0	0	511	508	0	406	37	0	
10	0	0	0	0	512	508	0	407	37	0	
11	0	0	0	0	507	509	0	395	37	0	
12	0	0	0	0	510	512	1	368	37	0	
13	0	0	0	0	512	510	0	337	37	0	
14	0	0	0	0	516	510	0	305	37	0	
15	0	0	0	0	513	512	0	285	37	0	
0	0	0	0	0	508	511	0	272	37	0	
1	0	0	0	0	512	511	0	270	37	0	
2	0	0	0	0	509	512	0	291	37	0	
3	0	0	0	0	505	513	0	337	37	0	
4	0	0	0	0	511	512	0	398	37	0	
5	0	0	0	0	508	512	0	457	37	0	
6	0	0	0	0	511	514	0	506	37	0	
7	0	0	0	0	507	514	0	536	37	0	
8	0	0	0	0	515	512	0	548	37	0	
9	0	0	0	0	507	512	0	550	37	0	
10	0	0	0	0	510	513	0	549	37	0	
11	0	0	0	0	513	513	0	542	37	0	
12	0	0	0	0	507	511	0	536	37	0	
13	0	0	0	0	511	512	0	539	37	0	
14	0	0	0	0	513	512	0	550	37	0	
15	0	0	0	0	511	512	0	567	37	0	
0	0	0	0	0	509	512	1	579	37	0	
1	0	0	0	0	504	510	0	575	37	0	
2	0	0	0	0	503	512	0	552	37	0	
3	0	0	0	0	516	511	0	517	37	0	
4	0	0	0	0	512	513	1	474	37	0	
5	0	0	0	0	511	513	0	415	37	0	
6	0	0	0	0	510	513	0	337	37	0	
7	0	0	0	0	512	514	0	263	37	0	
8	0	0	0	0	505	513	1	194	37	0	
9	0	0	0	0	509	511	0	141	37	0	
10	0	0	0	0	508	513	0	96	37	0	
11	0	0	0	0	514	514	0	67	37	0	
12	0	0	0	0	514	513	0	31	37	0	
13	0	0	0	0	509	514	0	0	37	0	
14	0	0	0	0	512	513	0	0	37	0	
15	0	0	0	0	508	513	0	0	37	0	
0	0	0	0	0	509	511	0	0	37	0	
1	0	0	0	0	511	512	0	0	37	0	
2	0	0	0	0	514	513	0	0	37	0	
3	0	0	0	0	507	513	0	0	37	0	
4	0	0	0	0	511	512	1	0	37	0	
5	0	0	0	0	506	512	0	0	37	0	
6	0	0	0	0	505	512	0	0	37	0	
7	0	0	0	0	513	512	0	0	37	0	
8	0	0	0	0	512	510	0	0	37	0	
9	0	0	0	0	511	511	0	0	37	0	
10	0	0	0	0	514	510	0	0	37	0	
11	0	0	0	0	500	510	0	0	37	0	
12	0	0	0	0	506	510	0	0	37	0	
13	0	0	0	0	514	511	0	0	37	0	
14	0	0	0	0	510	513	0	0	37	0	
15	0	0	0	0	508	513	0	0	37	0	
0	0	0	0	0	515	513	1	0	37	0	
1	0	0	0	0	506	511	0	0	37	0	
2	0	0	0	0	506	511	0	0	37	0	
3	0	0	0	0	511	513	0	0	37	0	
4	0	0	0	0	509	511	0	0	37	0	
5	0	0	0	0	510	511	0	0	37	0	
6	0	0	0	0	514	510	0	0	37	0	
7	0	0	0	0	513	510	0	0	37	0	
8	0	0	0	0	512	510	1	0	37	0	
9	0	0	0	0	514	510	0	0	37	0	
10	0	0	0	0	512	511	0	0	37	0	
11	0	0	0	0	508	512	0	0	37	0	
12	0	0	0	0	505	512	1	0	37	0	
13	0	0	0	0	514	512	0	0	37	0	
14	0	0	0	0	510	513	0	0	37	0	
15	0	0	0	0	506	514	0	0	37	0	
0	0	0	0	0	511	515	0	0	37	0	
1	0	0	0	0	518	515	0	0	37	0	
2	0	0	0	0	505	514	0	0	37	0	
3	0	0	0	0	509	514	0	0	37	0	
4	0	0	0	0	505	514	1	0	37	0	
5	0	0	0	0	507	512	0	0	37	0	
6	0	0	0	0	512	512	0	0	37	0	
7	0	0	0	0	512	513	0	0	37	0	
8	0	0	0	0	513	512	1	0	37	0	
9	0	0	0	0	512	510	0	0	37	0	
10	0	0	0	0	515	510	0	0	37	0	
11	0	0	0	0	508	511	0	0	37	0	
12	0	0	0	0	506	510	0	0	37	0	
13	0	0	0	0	507	509	0	0	37	0	
14	0	0	0	0	504	510	0	0	37	0	
15	0	0	0	0	505	514	0	0	37	0	
0	0	0	0	0	506	514	1	0	37	0	
1	0	0	0	0	505	513	0	0	37	0	
2	0	0	0	0	508	513	0	0	37	0	
3	0	0	0	0	511	513	0	0	37	0	
4	0	0	0	0	511	514	0	0	37	0	
5	0	0	0	0	511	513	0	0	37	0	
6	0	0	0	0	512	512	0	0	37	0	
7	0	0	0	0	511	512	0	0	37	0	
8	0	0	0	0	510	512	0	0	37	0	
9	0	0	0	0	510	513	0	0	37	0	
10	0	0	0	0	518	512	0	0	37	0	
11	0	0	0	0	507	512	0	0	37	0	
12	0	0	0	0	514	511	0	0	37	0	
13	0	0	0	0	509	510	0	0	37	0	
14	0	0	0	0	511	510	0	0	37	0	
15	0	0	0	0	512	511	0	0	37	0	
0	0	0	0	0	508	510	0	0	37	0	
1	0	0	0	0	511	511	0	0	37	0	
2	0	0	0	0	511	511	0	0	37	0	
3	0	0	0	0	506	511	0	0	37	0	
4	0	0	0	0	512	509	1	0	37	0	
5	0	0	0	0	511	511	0	0	37	0	
6	0	0	0	0	508	512	0	0	37	0	
7	0	0	0	0	511	513	0	0	37	0	
8	0	0	0	0	503	512	0	0	37	0	
9	0	0	0	0	509	512	0	0	37	0	
10	0	0	0	0	511	513	0	0	37	0	
11	0	0	0	0	508	515	0	0	37	0	
12	0	0	0	0	512	515	1	0	37	0	
13	0	0	0	0	503	513	0	0	37	0	
14	0	0	0	0	511	513	0	0	37	0	
15	0	0	0	0	509	513	0	0	37	0	
0	0	0	0	0	507	513	0	0	37	0	
1	0	0	0	0	516	514	0	0	37	0	
2	0	0	0	0	511	513	0	0	37	0	
3	0	0	0	0	505	512	0	0	37	0	
4	0	0	0	0	509	510	0	0	37	0	
5	0	0	0	0	511	511	0	0	37	0	
6	0	0	0	0	510	511	0	0	37	0	
7	0	0	0	0	508	513	0	0	37	0	
8	0	0	0	0	512	515	1	0	37	0	
9	0	0	0	0	514	514	0	0	37	0	
10	0	0	0	0	510	514	0	0	37	0	
11	0	0	0	0	511	516	0	0	37	0	
12	0	0	0	0	506	515	1	0	37	0	
13	0	0	0	0	509	513	0	0	37	0	
14	0	0	0	0	512	513	0	0	37	0	
15	0	0	0	0	514	512	0	0	37	0	
0	0	0	0	0	513	511	0	0	37	0	
1	0	0	0	0	507	510	0	0	37	0	
2	0	0	0	0	518	512	0	0	37	0	
3	0	0	0	0	511	514	0	0	37	0	
4	0	0	0	0	512	514	1	0	37	0	
5	0	0	0	0	512	512	0	0	37	0	
6	0	0	0	0	505	512	0	0	37	0	
7	0	0	0	0	510	513	0	0	37	0	
8	0	0	0	0	514	513	1	0	37	0	
9	0	0	0	0	510	510	0	0	37	0	
10	0	0	0	0	512	511	0	0	37	0	
11	0	0	0	0	515	511	0	0	37	0	
12	0	0	0	0	508	511	0	0	37	0	
13	0	0	0	0	510	513	0	0	37	0	
14	0	0	0	0	510	514	0	0	37	0	
15	0	0	0	0	504	514	0	0	37	0	
0	0	0	0	0	509	514	1	0	37	0	
1	0	0	0	0	503	512	0	0	37	0	
2	0	0	0	0	513	513	0	0	37	0	
3	0	0	0	0	515	515	0	0	37	0	
4	0	0	0	0	511	515	1	0	37	0	
5	0	0	0	0	513	514	0	0	37	0	
6	0	0	0	0	509	514	0	0	37	0	
7	0	0	0	0	512	515	0	0	37	0	
8	0	0	0	0	504	514	0	0	37	0	
9	0	0	0	0	513	513	0	0	37	0	
10	0	0	0	0	508	513	0	0	37	0	
11	0	0	0	0	508	513	0	0	37	0	
12	0	0	0	0	507	512	1	0	37	0	
13	0	0	0	0	510	512	0	0	37	0	
14	0	0	0	0	509	512	0	0	37	0	
15	0	0	0	0	510	513	0	0	37	0	
0	0	0	0	0	510	513	0	0	37	0	
1	0	0	0	0	512	513	0	0	37	0	
2	0	0	0	0	513	512	0	0	37	0	
3	0	0	0	0	514	514	0	0	37	0	
4	0	0	0	0	512	515	0	0	37	0	
5	0	0	0	0	508	514	0	0	37	0	
6	0	0	0	0	508	512	0	0	37	0	
7	0	0	0	0	508	512	0	0	37	0	
8	0	0	0	0	516	512	1	0	37	0	
9	0	0	0	0	511	513	0	0	37	0	
10	0	0	0	0	510	513	0	0	37	0	
11	0	0	0	0	509	513	0	0	37	0	
12	0	0	0	0	511	513	0	0	37	0	
13	0	0	0	0	508	512	0	0	37	0	
14	0	0	0	0	512	513	0	0	37	0	
15	0	0	0	0	508	513	0	0	37	0	
0	0	0	0	0	517	512	0	0	37	0	
1	0	0	0	0	507	513	0	0	37	0	
2	0	0	0	0	511	514	0	0	37	0	
3	0	0	0	0	507	513	0	0	37	0	
4	0	0	0	0	513	511	0	0	37	0	
5	0	0	0	0	506	512	0	0	37	0	
6	0	0	0	0	508	512	0	0	37	0	
7	0	0	0	0	508	513	0	0	37	0	
8	0	0	0	0	504	512	0	0	37	0	
9	0	0	0	0	513	510	0	0	37	0	
10	0	0	0	0	508	510	0	0	37	0	
11	0	0	0	0	513	511	0	0	37	0	
12	0	0	0	0	512	513	1	0	37	0	
13	0	0	0	0	509	513	0	0	37	0	
14	0	0	0	0	507	513	0	0	37	0	
15	0	0	0	0	508	515	0	0	37	0	
0	0	0	0	0	511	515	1	0	37	0	
1	0	0	0	0	510	512	0	0	37	0	
2	0	0	0	0	511	512	0	0	37	0	
3	0	0	0	0	506	511	0	0	37	0	
4	0	0	0	0	509	510	0	0	37	0	
5	0	0	0	0	514	512	0	0	37	0	
6	0	0	0	0	505	513	0	0	37	0	
7	0	0	0	0	510	514	0	0	37	0	
8	0	0	0	0	509	512	0	0	37	0	
9	0	0	0	0	513	513	0	0	37	0	
10	0	0	0	0	523	514	0	0	37	0	
11	0	0	0	0	511	514	0	0	37	0	
12	0	0	0	0	510	514	1	0	37	0	
13	0	0	0	0	508	514	0	0	37	0	
14	0	0	0	0	505	515	0	0	37	0	
15	0	0	0	0	512	514	0	0	37	0	
0	0	0	0	0	516	516	1	0	37	0	
1	0	0	0	0	508	515	0	0	37	0	
2	0	0	0	0	512	515	0	0	37	0	
3	0	0	0	0	505	513	0	0	37	0	
4	0	0	0	0	511	513	0	0	37	0	
5	0	0	0	0	507	510	0	0	37	0	
6	0	0	0	0	511	509	0	0	37	0	
7	0	0	0	0	509	512	0	0	37	0	
8	0	0	0	0	510	511	0	0	37	0	
9	0	0	0	0	510	513	0	0	37	0	
10	0	0	0	0	510	514	0	0	37	0	
11	0	0	0	0	508	513	0	0	37	0	
12	0	0	0	0	508	512	1	0	37	0	
13	0	0	0	0	508	512	0	0	37	0	
14	0	0	0	0	507	513	0	0	37	0	
15	0	0	0	0	508	513	0	0	37	0	
0	0	0	0	0	509	514	0	0	37	0	
1	0	0	0	0	512	514	0	61	37	0	
2	0	0	0	0	506	513	0	103	37	0	
3	0	0	0	0	514	512	0	141	37	0	
4	0	0	0	0	510	513	1	172	37	0	
5	0	0	0	0	510	511	0	194	37	0	
6	0	0	0	0	516	511	0	210	37	0	
7	0	0	0	0	510	511	0	219	37	0	
8	0	0	0	0	507	512	0	237	37	0	
9	0	0	0	0	505	512	0	255	37	0	
10	0	0	0	0	512	513	0	296	37	0	
11	0	0	0	0	519	513	0	329	37	0	
12	0	0	0	0	511	513	1	374	37	0	
13	0	0	0	0	512	511	0	423	37	0	
14	0	0	0	0	510	512	0	467	37	0	
15	0	0	0	0	502	513	0	508	37	0	
0	0	0	0	0	515	513	1	545	37	0	
1	0	0	0	0	515	513	0	586	37	0	
2	0	0	0	0	509	513	0	625	37	0	
3	0	0	0	0	515	512	0	650	37	0	
4	0	0	0	0	511	513	1	661	37	0	
5	0	0	0	0	513	512	0	676	37	0	
6	0	0	0	0	509	512	0	694	37	0	
7	0	0	0	0	507	513	0	719	37	0	
8	0	0	0	0	510	512	1	737	37	0	
9	0	0	0	0	511	511	0	754	37	0	
10	0	0	0	0	511	509	0	772	37	0	
11	0	0	0	0	513	510	0	807	37	0	
12	0	0	0	0	510	511	1	844	37	0	
13	0	0	0	0	507	509	0	865	37	0	
14	0	0	0	0	505	510	0	875	37	0	
15	0	0	0	0	505	511	0	880	37	0	
0	0	0	0	0	512	511	1	884	37	0	
1	0	0	0	0	506	512	0	900	37	0	
2	0	0	0	0	515	512	0	919	37	0	
3	0	0	0	0	508	513	0	945	37	0	
4	0	0	0	0	513	513	0	970	37	0	
5	0	0	0	0	513	513	0	992	37	0	
6	0	0	0	0	508	514	0	1016	37	0	
7	0	0	0	0	514	515	0	1017	37	0	
8	0	0	0	0	503	512	0	1018	37	0	
9	0	0	0	0	510	509	0	1018	37	0	
10	0	0	0	0	503	509	0	1018	37	0	
11	0	0	0	0	505	510	0	1018	37	0	
12	0	0	0	0	512	513	0	1018	37	0	
13	0	0	0	0	508	513	0	1018	37	0	
14	0	0	0	0	507	512	0	1018	37	0	
15	0	0	0	0	515	514	0	1018	37	0	
0	0	0	0	0	513	513	0	1019	37	0	
1	0	0	0	0	509	512	0	1018	37	0	
2	0	0	0	0	509	513	0	1018	37	0	
3	0	0	0	0	513	514	0	1018	37	0	
4	0	0	0	0	510	513	1	1018	37	0	
5	0	0	0	0	513	513	0	1018	37	0	
6	0	0	0	0	509	515	0	1018	37	0	
7	0	0	0	0	512	515	0	1018	37	0	
8	0	0	0	0	511	512	0	1019	37	0	
9	0	0	0	0	508	512	0	1018	37	0	
10	0	0	0	0	515	513	0	1018	37	0	
11	0	0	0	0	512	514	0	1018	37	0	
12	0	0	0	0	508	516	1	1019	37	0	
13	0	0	0	0	510	514	0	1018	37	0	
14	0	0	0	0	505	514	0	1018	37	0	
15	0	0	0	0	508	514	0	1018	37	0	
0	0	0	0	0	509	513	0	1018	37	0	
1	0	0	0	0	508	513	0	1018	37	0	
2	0	0	0	0	512	511	0	1018	37	0	
3	0	0	0	0	513	511	0	1018	37	0	
4	0	0	0	0	511	510	1	1019	37	0	
5	0	0	0	0	506	510	0	1018	37	0	
6	0	0	0	0	510	513	0	1018	37	0	
7	0	0	0	0	511	513	0	1018	37	0	
8	0	0	0	0	508	512	1	1019	37	0	
9	0	0	0	0	508	510	0	1018	37	0	
10	0	0	0	0	519	512	0	1018	37	0	
11	0	0	0	0	511	512	0	1018	37	0	
12	0	0	0	0	514	511	0	1018	37	0	
13	0	0	0	0	506	510	0	1018	37	0	
14	0	0	0	0	512	511	0	1018	37	0	
15	0	0	0	0	511	511	0	1018	37	0	
0	0	0	0	0	511	514	1	1019	37	0	
1	0	0	0	0	512	512	0	1018	37	0	
2	0	0	0	0	512	513	0	1018	37	0	
3	0	0	0	0	510	516	0	1018	37	0	
4	0	0	0	0	509	515	1	1019	37	0	
5	0	0	0	0	507	514	0	1018	37	0	
6	0	0	0	0	512	514	0	1018	37	0	
7	0	0	0	0	507	514	0	1018	37	0	
8	0	0	0	0	517	513	0	1019	37	0	
9	0	0	0	0	510	512	0	1018	37	0	
10	0	0	0	0	520	513	0	1018	37	0	
11	0	0	0	0	512	514	0	1018	37	0	
12	0	0	0	0	503	514	1	1019	37	0	
13	0	0	0	0	513	512	0	1018	37	0	
14	0	0	0	0	508	512	0	1018	37	0	
15	0	0	0	0	513	513	0	1018	37	0	
0	0	0	0	0	514	512	1	1019	37	0	
1	0	0	0	0	506	512	0	1018	37	0	
2	0	0	0	0	512	512	0	1018	37	0	
3	0	0	0	0	511	512	0	1018	37	0	
4	0	0	0	0	512	512	1	1019	37	0	
5	0	0	0	0	514	510	0	1018	37	0	
6	0	0	0	0	510	510	0	1018	37	0	
7	0	0	0	0	509	510	0	1018	37	0	
8	0	0	0	0	508	512	1	1019	37	0	
9	0	0	0	0	505	511	0	1018	37	0	
10	0	0	0	0	508	511	0	1018	37	0	
11	0	0	0	0	515	512	0	1018	37	0	
12	0	0	0	0	515	512	1	1019	37	0	
13	0	0	0	0	514	511	0	1018	37	0	
14	0	0	0	0	510	510	0	1018	37	0	
15	0	0	0	0	511	508	0	1018	37	0	
0	0	0	0	0	506	509	1	1019	37	0	
1	0	0	0	0	516	509	0	1018	37	0	
2	0	0	0	0	518	509	0	1018	37	0	
3	0	0	0	0	507	512	0	1018	37	0	
4	0	0	0	0	510	512	1	1019	37	0	
5	0	0	0	0	509	513	0	1018	37	0	
6	0	0	0	0	511	514	0	1018	37	0	
7	0	0	0	0	513	512	0	1018	37	0	
8	0	0	0	0	510	514	1	1019	37	0	
9	0	0	0	0	506	515	0	1018	37	0	
10	0	0	0	0	504	512	0	1018	37	0	
11	0	0	0	0	512	513	0	1018	37	0	
12	0	0	0	0	511	515	1	1019	37	0	
13	0	0	0	0	516	515	0	1018	37	0	
14	0	0	0	0	513	515	0	1018	37	0	
15	0	0	0	0	510	517	0	1018	37	0	
0	0	0	0	0	508	515	0	1018	37	0	
1	0	0	0	0	503	513	0	1018	37	0	
2	0	0	0	0	509	513	0	1018	37	0	
3	0	0	0	0	519	512	0	1018	37	0	
4	0	0	0	0	514	512	1	1019	37	0	
5	0	0	0	0	506	511	0	1018	37	0	
6	0	0	0	0	511	510	0	1018	37	0	
7	0	0	0	0	509	512	0	1018	37	0	
8	0	0	0	0	512	514	1	1019	37	0	
9	0	0	0	0	512	512	0	1018	37	0	
10	0	0	0	0	515	512	0	1018	37	0	
11	0	0	0	0	507	511	0	1018	37	0	
12	0	0	0	0	511	510	1	1018	37	0	
13	0	0	0	0	509	508	0	1018	37	0	
14	0	0	0	0	511	509	0	1018	37	0	
15	0	0	0	0	508	510	0	1018	37	0	
0	0	0	0	0	508	510	1	1018	37	0	
1	0	0	0	0	513	512	0	1018	37	0	
2	0	0	0	0	513	512	0	1018	37	0	
3	0	0	0	0	504	512	0	1018	37	0	
4	0	0	0	0	512	514	1	1019	37	0	
5	0	0	0	0	511	512	0	1018	37	0	
6	0	0	0	0	514	515	0	1018	37	0	
7	0	0	0	0	513	515	0	1018	37	0	
8	0	0	0	0	510	516	1	1019	37	0	
9	0	0	0	0	511	513	0	1018	37	0	
10	0	0	0	0	513	514	0	1018	37	0	
11	0	0	0	0	511	513	0	1018	37	0	
12	0	0	0	0	513	512	1	1018	37	0	
13	0	0	0	0	509	511	0	1018	37	0	
14	0	0	0	0	504	512	0	1018	37	0	
15	0	0	0	0	513	512	0	1018	37	0	
0	0	0	0	0	507	511	1	1018	37	0	
1	0	0	0	0	516	511	0	1018	37	0	
2	0	0	0	0	508	511	0	1018	37	0	
3	0	0	0	0	509	513	0	1018	37	0	
4	0	0	0	0	512	513	1	1019	37	0	
5	0	0	0	0	512	513	0	1018	37	0	
6	0	0	0	0	509	512	0	1018	37	0	
7	0	0	0	0	507	513	0	1018	37	0	
8	0	0	0	0	514	511	0	1018	37	0	
9	0	0	0	0	509	512	0	1018	37	0	
10	0	0	0	0	507	510	0	1018	37	0	
11	0	0	0	0	509	511	0	1018	37	0	
12	0	0	0	0	511	510	1	1018	37	0	
13	0	0	0	0	511	511	0	1019	37	0	
14	0	0	0	0	515	512	0	1018	37	0	
15	0	0	0	0	509	512	0	1018	37	0	
0	0	0	0	0	508	512	1	1019	37	0	
1	0	0	0	0	512	511	0	1018	37	0	
2	0	0	0	0	514	512	0	1018	37	0	
3	0	0	0	0	510	511	0	1018	37	0	
4	0	0	0	0	500	512	0	1018	37	0	
5	0	0	0	0	513	512	0	1018	37	0	
6	0	0	0	0	507	512	0	1018	37	0	
7	0	0	0	0	506	513	0	1018	37	0	
8	0	0	0	0	510	514	0	1018	37	0	
9	0	0	0	0	509	515	0	1018	37	0	
10	0	0	0	0	512	517	0	1018	37	0	
11	0	0	0	0	508	516	0	1018	37	0	
12	0	0	0	0	515	514	0	1019	37	0	
13	0	0	0	0	509	514	0	1018	37	0	
14	0	0	0	0	504	515	0	1018	37	0	
15	0	0	0	0	506	517	0	1018	37	0	
0	0	0	0	0	503	515	1	1019	37	0	
1	0	0	0	0	502	511	0	1019	37	0	
2	0	0	0	0	517	510	0	1018	37	0	
3	0	0	0	0	518	510	0	1018	37	0	
4	0	0	0	0	513	510	1	1018	37	0	
5	0	0	0	0	507	509	0	1018	37	0	
6	0	0	0	0	513	509	0	1019	37	0	
7	0	0	0	0	510	509	0	1018	37	0	
8	0	0	0	0	513	511	1	1019	37	0	
9	0	0	0	0	508	512	0	1018	37	0	
10	0	0	0	0	512	512	0	1018	37	0	
11	0	0	0	0	506	512	0	1018	37	0	
12	0	0	0	0	512	511	1	1018	37	0	
13	0	0	0	0	515	511	0	1018	37	0	
14	0	0	0	0	515	512	0	1018	37	0	
15	0	0	0	0	512	513	0	1018	37	0	
0	0	0	0	0	506	513	1	1018	37	0	
1	0	0	0	0	505	513	0	1018	37	0	
2	0	0	0	0	510	511	0	1018	37	0	
3	0	0	0	0	512	514	0	1018	37	0	
4	0	0	0	0	510	515	1	1019	37	0	
5	0	0	0	0	508	512	0	1018	37	0	
6	0	0	0	0	515	513	0	1018	37	0	
7	0	0	0	0	509	512	0	1018	37	0	
8	0	0	0	0	509	509	1	1018	37	0	
9	0	0	0	0	507	510	0	1018	37	0	
10	0	0	0	0	515	511	0	1018	37	0	
11	0	0	0	0	512	512	0	1018	37	0	
12	0	0	0	0	516	512	1	1019	37	0	
13	0	0	0	0	518	512	0	1018	37	0	
14	0	0	0	0	513	512	0	1018	37	0	
15	0	0	0	0	509	513	0	1018	37	0	
0	0	0	0	0	504	513	1	1019	37	0	
1	0	0	0	0	512	513	0	1018	37	0	
2	0	0	0	0	506	513	0	1018	37	0	
3	0	0	0	0	507	514	0	1018	37	0	
4	0	0	0	0	508	514	1	1019	37	0	
5	0	0	0	0	506	513	0	1018	37	0	
6	0	0	0	0	511	511	0	1018	37	0	
7	0	0	0	0	513	510	0	1018	37	0	
8	0	0	0	0	502	508	1	1019	37	0	
9	0	0	0	0	511	507	0	1018	37	0	
10	0	0	0	0	510	508	0	1018	37	0	
11	0	0	0	0	508	510	0	1018	37	0	
12	0	0	0	0	510	510	1	1018	37	0	
13	0	0	0	0	511	510	0	1018	37	0	
14	0	0	0	0	511	510	0	1018	37	0	
15	0	0	0	0	519	512	0	1018	37	0	
0	0	0	0	0	513	514	1	1019	37	0	
1	0	0	0	0	504	511	0	1018	37	0	
2	0	0	0	0	516	513	0	1018	37	0	
3	0	0	0	0	512	513	0	1018	37	0	
4	0	0	0	0	510	512	1	1019	37	0	
5	0	0	0	0	510	512	0	1018	37	0	
6	0	0	0	0	509	512	0	1018	37	0	
7	0	0	0	0	506	513	0	1018	37	0	
8	0	0	0	0	509	511	0	1019	37	0	
9	0	0	0	0	509	511	0	1018	37	0	
10	0	0	0	0	510	512	0	1018	37	0	
11	0	0	0	0	515	513	0	1018	37	0	
12	0	0	0	0	507	511	1	1019	37	0	
13	0	0	0	0	514	511	0	1018	37	0	
14	0	0	0	0	510	512	0	1018	37	0	
15	0	0	0	0	505	512	0	1018	37	0	
0	0	0	0	0	512	511	1	1019	37	0	
1	0	0	0	0	511	510	0	1018	37	0	
2	0	0	0	0	507	509	0	1018	37	0	
3	0	0	0	0	510	510	0	1018	37	0	
4	0	0	0	0	518	511	1	1019	37	0	
5	0	0	0	0	512	511	0	1018	37	0	
6	0	0	0	0	513	513	0	1018	37	0	
7	0	0	0	0	511	512	0	1018	37	0	
8	0	0	0	0	512	512	1	1019	37	0	
9	0	0	0	0	501	511	0	1018	37	0	
10	0	0	0	0	506	511	0	1018	37	0	
11	0	0	0	0	509	511	0	1018	37	0	
12	0	0	0	0	512	511	1	1019	37	0	
13	0	0	0	0	511	509	0	1018	37	0	
14	0	0	0	0	515	509	0	1018	37	0	
15	0	0	0	0	511	508	0	1018	37	0	
0	0	0	0	0	510	510	1	1019	37	0	
1	0	0	0	0	510	509	0	1018	37	0	
2	0	0	0	0	509	510	0	1018	37	0	
3	0	0	0	0	510	509	0	1018	37	0	
4	0	0	0	0	513	512	1	1019	37	0	
5	0	0	0	0	508	510	0	1018	37	0	
6	0	0	0	0	511	511	0	1018	37	0	
7	0	0	0	0	515	511	0	1018	37	0	
8	0	0	0	0	515	514	1	1019	37	0	
9	0	0	0	0	512	512	0	1018	37	0	
10	0	0	0	0	510	513	0	1018	37	0	
11	0	0	0	0	505	514	0	1018	37	0	
12	0	0	0	0	504	514	1	1019	37	0	
13	0	0	0	0	511	510	0	1018	37	0	
14	0	0	0	0	511	512	0	1018	37	0	
15	0	0	0	0	513	511	0	1018	37	0	
0	0	0	0	0	510	512	1	1019	37	0	
1	0	0	0	0	511	511	0	1018	37	0	
2	0	0	0	0	515	510	0	1018	37	0	
3	0	0	0	0	510	511	0	1018	37	0	
4	0	0	0	0	510	511	1	1019	37	0	
5	0	0	0	0	511	510	0	1018	37	0	
6	0	0	0	0	507	510	0	1018	37	0	
7	0	0	0	0	515	510	0	1018	37	0	
8	0	0	0	0	510	510	1	1018	37	0	
9	0	0	0	0	509	509	0	1018	37	0	
10	0	0	0	0	509	510	0	1018	37	0	
11	0	0	0	0	512	510	0	1018	37	0	
12	0	0	0	0	509	511	1	1019	37	0	
13	0	0	0	0	512	511	0	1018	37	0	
14	0	0	0	0	515	511	0	1018	37	0	
15	0	0	0	0	508	510	0	1018	37	0	
0	0	0	0	0	510	512	1	1017	37	0	
1	0	0	0	0	509	511	0	1018	37	0	
2	0	0	0	0	507	512	0	1018	37	0	
3	0	0	0	0	515	513	0	1018	37	0	
4	0	0	0	0	515	511	1	1019	37	0	
5	0	0	0	0	511	510	0	1018	37	0	
6	0	0	0	0	510	510	0	1018	37	0	
7	0	0	0	0	512	510	0	1018	37	0	
8	0	0	0	0	509	510	1	1018	37	0	
9	0	0	0	0	508	510	0	1018	37	0	
10	0	0	0	0	508	513	0	1018	37	0	
11	0	0	0	0	515	513	0	1018	37	0	
12	0	0	0	0	509	514	1	1019	37	0	
13	0	0	0	0	504	514	0	1018	37	0	
14	0	0	0	0	513	512	0	1018	37	0	
15	0	0	0	0	512	514	0	1018	37	0	
0	0	0	0	0	511	513	1	1019	37	0	
1	0	0	0	0	508	512	0	1018	37	0	
2	0	0	0	0	511	512	0	1018	37	0	
3	0	0	0	0	517	512	0	1018	37	0	
4	0	0	0	0	509	511	1	1018	37	0	
5	0	0	0	0	506	510	0	1018	37	0	
6	0	0	0	0	508	512	0	1018	37	0	
7	0	0	0	0	512	513	0	1018	37	0	
8	0	0	0	0	514	511	0	1018	37	0	
9	0	0	0	0	509	511	0	1018	37	0	
10	0	0	0	0	504	511	0	1018	37	0	
11	0	0	0	0	511	512	0	1018	37	0	
12	0	0	0	0	507	510	1	1019	37	0	
13	0	0	0	0	512	511	0	1018	37	0	
14	0	0	0	0	512	513	0	1018	37	0	
15	0	0	0	0	505	512	0	1018	37	0	
0	0	0	0	0	510	511	1	1018	37	0	
1	0	0	0	0	513	511	0	1018	37	0	
2	0	0	0	0	514	511	0	1018	37	0	
3	0	0	0	0	512	512	0	1018	37	0	
4	0	0	0	0	504	513	1	1019	37	0	
5	0	0	0	0	512	511	0	1018	37	0	
6	0	0	0	0	512	513	0	1018	37	0	
7	0	0	0	0	510	513	0	1018	37	0	
8	0	0	0	0	504	511	0	1019	37	0	
9	0	0	0	0	502	513	0	1018	37	0	
10	0	0	0	0	514	511	0	1018	37	0	
11	0	0	0	0	514	510	0	1018	37	0	
12	0	0	0	0	510	512	1	1019	37	0	
13	0	0	0	0	508	510	0	1018	37	0	
14	0	0	0	0	508	510	0	1018	37	0	
15	0	0	0	0	513	509	0	1018	37	0	
0	0	0	0	0	507	511	1	1019	37	0	
1	0	0	0	0	513	511	0	1018	37	0	
2	0	0	0	0	508	513	0	1018	37	0	
3	0	0	0	0	516	513	0	1018	37	0	
4	0	0	0	0	514	512	1	1019	37	0	
5	0	0	0	0	508	513	0	1018	37	0	
6	0	0	0	0	508	512	0	1018	37	0	
7	0	0	0	0	518	511	0	1018	37	0	
8	0	0	0	0	509	513	1	1019	37	0	
9	0	0	0	0	507	512	0	1018	37	0	
10	0	0	0	0	505	512	0	1018	37	0	
11	0	0	0	0	509	513	0	1018	37	0	
12	0	0	0	0	515	513	1	1019	38	0	
13	0	0	0	0	513	511	0	1018	37	0	
14	0	0	0	0	516	511	0	1018	37	0	
15	0	0	0	0	504	513	0	1018	37	0	
0	0	0	0	0	513	513	1	1019	37	0	
1	0	0	0	0	510	513	0	1018	37	0	
2	0	0	0	0	508	512	0	1018	37	0	
3	0	0	0	0	509	512	0	1018	37	0	
4	0	0	0	0	506	511	1	1019	37	0	
5	0	0	0	0	508	511	0	1018	37	0	
6	0	0	0	0	507	513	0	1018	37	0	
7	0	0	0	0	516	512	0	1018	37	0	
8	0	0	0	0	506	510	1	1019	37	0	
9	0	0	0	0	512	508	0	1018	37	0	
10	0	0	0	0	512	508	0	1018	37	0	
11	0	0	0	0	513	511	0	1018	37	0	
12	0	0	0	0	508	512	1	1019	37	0	
13	0	0	0	0	512	511	0	1018	37	0	
14	0	0	0	0	508	513	0	1018	37	0	
15	0	0	0	0	505	514	0	1018	37	0	
0	0	0	0	0	511	515	1	1019	37	0	
1	0	0	0	0	516	512	0	1018	37	0	
2	0	0	0	0	505	512	0	1018	37	0	
3	0	0	0	0	506	512	0	1018	37	0	
4	0	0	0	0	513	510	0	1019	37	0	
5	0	0	0	0	514	510	0	1018	37	0	
6	0	0	0	0	514	510	0	1018	37	0	
7	0	0	0	0	511	511	0	1018	37	0	
8	0	0	0	0	508	512	1	1019	37	0	
9	0	0	0	0	510	511	0	1018	37	0	
10	0	0	0	0	515	511	0	1018	37	0	
11	0	0	0	0	511	511	0	1018	37	0	
12	0	0	0	0	508	509	1	1019	37	0	
13	0	0	0	0	505	511	0	1018	37	0	
14	0	0	0	0	510	511	0	1018	37	0	
15	0	0	0	0	513	510	0	1018	37	0	
0	0	0	0	0	507	509	1	1019	37	0	
1	0	0	0	0	511	507	0	1018	37	0	
2	0	0	0	0	510	510	0	1018	37	0	
3	0	0	0	0	507	511	0	1018	37	0	
4	0	0	0	0	512	509	1	1018	37	0	
5	0	0	0	0	512	508	0	1018	37	0	
6	0	0	0	0	513	507	0	1018	37	0	
7	0	0	0	0	505	509	0	1018	37	0	
8	0	0	0	0	505	508	1	1019	37	0	
9	0	0	0	0	505	507	0	1018	37	0	
10	0	0	0	0	514	508	0	1018	37	0	
11	0	0	0	0	515	510	0	1018	37	0	
12	0	0	0	0	513	511	1	1019	37	0	
13	0	0	0	0	510	508	0	1018	37	0	
14	0	0	0	0	512	509	0	1018	37	0	
15	0	0	0	0	505	510	0	1018	37	0	
0	0	0	0	0	514	511	1	1019	37	0	
1	0	0	0	0	509	507	0	1018	37	0	
2	0	0	0	0	511	506	0	1018	37	0	
3	0	0	0	0	510	507	0	1018	37	0	
4	0	0	0	0	508	511	1	1019	37	0	
5	0	0	0	0	513	511	0	1018	37	0	
6	0	0	0	0	511	511	0	1018	37	0	
7	0	0	0	0	508	511	0	1018	37	0	
8	0	0	0	0	509	512	1	1019	37	0	
9	0	0	0	0	515	512	0	1018	37	0	
10	0	0	0	0	510	513	0	1018	37	0	
11	0	0	0	0	510	513	0	1017	37	0	
12	0	0	0	0	508	512	0	1019	37	0	
13	0	0	0	0	510	513	0	1018	37	0	
14	0	0	0	0	512	514	0	1018	37	0	
15	0	0	0	0	515	513	0	1018	37	0	
0	0	0	0	0	511	514	1	1019	37	0	
1	0	0	0	0	503	515	0	1018	37	0	
2	0	0	0	0	514	513	0	1018	37	0	
3	0	0	0	0	507	513	0	1018	37	0	
4	0	0	0	0	507	513	1	1019	37	0	
5	0	0	0	0	512	515	0	1018	37	0	
6	0	0	0	0	512	516	0	1018	37	0	
7	0	0	0	0	502	516	0	1018	37	0	
8	0	0	0	0	517	514	1	1018	37	0	
9	0	0	0	0	511	512	0	1018	37	0	
10	0	0	0	0	514	513	0	1018	37	0	
11	0	0	0	0	511	514	0	1018	37	0	
12	0	0	0	0	510	516	1	1019	37	0	
13	0	0	0	0	512	513	0	1018	37	0	
14	0	0	0	0	514	512	0	1018	37	0	
15	0	0	0	0	511	511	0	1017	37	0	
0	0	0	0	0	507	512	1	1019	37	0	
1	0	0	0	0	504	510	0	1018	37	0	
2	0	0	0	0	513	510	0	1018	37	0	
3	0	0	0	0	516	511	0	1018	37	0	
4	0	0	0	0	508	511	1	1019	37	0	
5	0	0	0	0	513	512	0	1018	37	0	
6	0	0	0	0	511	512	0	1018	37	0	
7	0	0	0	0	506	512	0	1017	37	0	
8	0	0	0	0	512	513	1	1019	37	0	
9	0	0	0	0	509	513	0	1018	37	0	
10	0	0	0	0	499	512	0	1018	37	0	
11	0	0	0	0	511	512	0	1018	37	0	
12	0	0	0	0	522	512	1	1019	37	0	
13	0	0	0	0	514	510	0	1018	37	0	
14	0	0	0	0	512	512	0	1018	37	0	
15	0	0	0	0	511	512	0	1018	37	0	
0	0	0	0	0	509	513	1	1018	37	0	
1	0	0	0	0	506	512	0	1018	37	0	
2	0	0	0	0	502	514	0	1018	37	0	
3	0	0	0	0	511	514	0	1018	37	0	
4	0	0	0	0	513	513	1	1018	37	0	
5	0	0	0	0	516	513	0	1018	37	0	
6	0	0	0	0	517	514	0	1018	37	0	
7	0	0	0	0	514	512	0	1018	37	0	
8	0	0	0	0	501	511	1	1019	37	0	
9	0	0	0	0	502	511	0	1018	37	0	
10	0	0	0	0	512	513	0	977	37	0	
11	0	0	0	0	508	512	0	962	37	0	
12	0	0	0	0	507	511	1	951	37	0	
13	0	0	0	0	502	513	0	953	37	0	
14	0	0	0	0	510	514	0	960	37	0	
15	0	0	0	0	511	515	0	967	37	0	
0	0	0	0	0	516	514	1	985	37	0	
1	0	0	0	0	511	512	0	1012	37	0	
2	0	0	0	0	507	511	0	1018	37	0	
3	0	0	0	0	514	509	0	1018	37	0	
4	0	0	0	0	518	512	1	1019	37	0	
5	0	0	0	0	514	511	0	1018	37	0	
6	0	0	0	0	516	511	0	1018	37	0	
7	0	0	0	0	510	512	0	1017	37	0	
8	0	0	0	0	511	514	1	1019	37	0	
9	0	0	0	0	507	514	0	1018	37	0	
10	0	0	0	0	509	513	0	1018	37	0	
11	0	0	0	0	510	515	0	962	37	0	
12	0	0	0	0	506	516	1	946	37	0	
13	0	0	0	0	512	514	0	925	37	0	
14	0	0	0	0	509	514	0	893	37	0	
15	0	0	0	0	507	514	0	869	37	0	
0	0	0	0	0	512	513	1	852	37	0	
1	0	0	0	0	505	513	0	836	38	0	
2	0	0	0	0	513	514	0	815	37	0	
3	0	0	0	0	511	514	0	792	37	0	
4	0	0	0	0	512	513	1	766	37	0	
5	0	0	0	0	512	513	0	746	37	0	
6	0	0	0	0	511	512	0	722	37	0	
7	0	0	0	0	504	513	0	704	37	0	
8	0	0	0	0	513	512	1	679	37	0	
9	0	0	0	0	507	511	0	651	38	0	
10	0	0	0	0	510	512	0	618	37	0	
11	0	0	0	0	508	513	0	576	37	0	
12	0	0	0	0	513	512	1	538	37	0	
13	0	0	0	0	507	510	0	513	37	0	
14	0	0	0	0	505	512	0	486	37	0	
15	0	0	0	0	508	513	0	447	37	0	
0	0	0	0	0	506	513	1	403	37	0	
1	0	0	0	0	515	513	0	368	37	0	
2	0	0	0	0	516	515	0	343	37	0	
3	0	0	0	0	508	514	0	334	37	0	
4	0	0	0	0	504	512	1	327	37	0	
5	0	0	0	0	510	513	0	318	37	0	
6	0	0	0	0	504	512	0	294	37	0	
7	0	0	0	0	507	513	0	266	37	0	
8	0	0	0	0	507	513	0	237	37	0	
9	0	0	0	0	519	512	0	204	37	0	
10	0	0	0	0	517	512	0	183	37	0	
11	0	0	0	0	514	513	0	178	37	0	
12	0	0	0	0	507	512	0	189	37	0	
13	0	0	0	0	503	512	0	212	37	0	
14	0	0	0	0	509	511	0	248	37	0	
15	0	0	0	0	509	511	0	290	37	0	
0	0	0	0	0	510	511	0	329	37	0	
1	0	0	0	0	507	511	0	356	37	0	
2	0	0	0	0	511	510	0	370	37	0	
3	0	0	0	0	505	510	0	373	37	0	
4	0	0	0	0	512	509	1	351	37	0	
5	0	0	0	0	510	507	0	336	37	0	
6	0	0	0	0	504	509	0	327	37	0	
7	0	0	0	0	512	510	0	322	37	0	
8	0	0	0	0	510	511	1	312	37	0	
9	0	0	0	0	510	512	0	311	37	0	
10	0	0	0	0	510	513	0	334	37	0	
11	0	0	0	0	513	514	0	364	37	0	
12	0	0	0	0	512	513	1	408	37	0	
13	0	0	0	0	512	510	0	436	37	0	
14	0	0	0	0	511	510	0	447	37	0	
15	0	0	0	0	510	510	0	451	37	0	
0	0	0	0	0	511	511	1	444	37	0	
1	0	0	0	0	505	510	0	439	37	0	
2	0	0	0	0	510	510	0	431	37	0	
3	0	0	0	0	509	511	0	433	37	0	
4	0	0	0	0	515	513	1	433	37	0	
5	0	0	0	0	516	511	0	437	37	0	
6	0	0	0	0	512	512	0	442	37	0	
7	0	0	0	0	515	512	0	452	37	0	
8	0	0	0	0	509	511	1	466	37	0	
9	0	0	0	0	505	511	0	481	38	0	
10	0	0	0	0	507	512	0	488	37	0	
11	0	0	0	0	516	510	0	486	37	0	
12	0	0	0	0	497	510	0	484	37	0	
13	0	0	0	0	509	513	0	478	37	0	
14	0	0	0	0	509	513	0	478	37	0	
15	0	0	0	0	516	513	0	467	37	0	
0	0	0	0	0	514	514	1	459	37	0	
1	0	0	0	0	508	512	0	465	37	0	
2	0	0	0	0	511	513	0	489	37	0	
3	0	0	0	0	515	515	0	518	37	0	
4	0	0	0	0	509	516	1	540	37	0	
5	0	0	0	0	515	516	0	557	37	0	
6	0	0	0	0	512	517	0	573	37	0	
7	0	0	0	0	504	515	0	589	37	0	
8	0	0	0	0	516	514	0	601	37	0	
9	0	0	0	0	513	513	0	608	38	0	
10	0	0	0	0	503	513	0	623	37	0	
11	0	0	0	0	512	515	0	645	37	0	
12	0	0	0	0	510	516	1	659	37	0	
13	0	0	0	0	504	516	0	660	37	0	
14	0	0	0	0	507	516	0	636	37	0	
15	0	0	0	0	514	516	0	613	37	0	
0	0	0	0	0	514	513	0	589	37	0	
1	0	0	0	0	508	511	0	562	37	0	
2	0	0	0	0	513	513	0	540	37	0	
3	0	0	0	0	513	515	0	513	37	0	
4	0	0	0	0	507	515	1	487	37	0	
5	0	0	0	0	505	512	0	463	37	0	
6	0	0	0	0	510	511	0	438	37	0	
7	0	0	0	0	509	511	0	420	37	0	
8	0	0	0	0	511	514	1	398	37	0	
9	0	0	0	0	511	512	0	387	37	0	
10	0	0	0	0	515	511	0	393	37	0	
11	0	0	0	0	513	512	0	376	37	0	
12	0	0	0	0	516	510	0	383	37	0	
13	0	0	0	0	507	511	0	401	37	0	
14	0	0	0	0	512	512	0	429	37	0	
15	0	0	0	0	513	514	0	465	37	0	
0	0	0	0	0	507	513	1	496	37	0	
1	0	0	0	0	513	515	0	520	38	0	
2	0	0	0	0	511	514	0	543	37	0	
3	0	0	0	0	506	515	0	573	37	0	
4	0	0	0	0	508	513	0	605	37	0	
5	0	0	0	0	510	513	0	638	37	0	
6	0	0	0	0	512	512	0	670	37	0	
7	0	0	0	0	509	511	0	683	37	0	
8	0	0	0	0	512	512	0	681	37	0	
9	0	0	0	0	508	513	0	675	38	0	
10	0	0	0	0	502	513	0	669	37	0	
11	0	0	0	0	510	512	0	664	37	0	
12	0	0	0	0	511	513	0	653	37	0	
13	0	0	0	0	510	513	0	652	37	0	
14	0	0	0	0	513	512	0	662	37	0	
15	0	0	0	0	510	512	0	676	37	0	
0	0	0	0	0	505	512	0	680	37	0	
1	0	0	0	0	517	512	0	686	37	0	
2	0	0	0	0	513	513	0	673	37	0	
3	0	0	0	0	512	511	0	669	37	0	
4	0	0	0	0	515	511	0	663	37	0	
5	0	0	0	0	513	511	0	654	37	0	
6	0	0	0	0	508	512	0	641	37	0	
7	0	0	0	0	512	513	0	627	37	0	
8	0	0	0	0	512	512	0	620	37	0	
9	0	0	0	0	511	513	0	625	37	0	
10	0	0	0	0	514	512	0	643	37	0	
11	0	0	0	0	510	512	0	654	37	0	
12	0	0	0	0	504	511	0	650	37	0	
13	0	0	0	0	501	512	0	654	37	0	
14	0	0	0	0	513	512	0	675	37	0	
15	0	0	0	0	514	513	0	698	37	0	
0	0	0	0	0	509	514	1	710	37	0	
1	0	0	0	0	511	512	0	718	38	0	
2	0	0	0	0	508	513	0	729	37	0	
3	0	0	0	0	505	516	0	742	37	0	
4	0	0	0	0	513	515	0	760	37	0	
5	0	0	0	0	503	514	0	786	37	0	
6	0	0	0	0	511	515	0	812	37	0	
7	0	0	0	0	514	517	0	833	37	0	
8	0	0	0	0	513	516	1	836	37	0	
9	0	0	0	0	519	515	0	833	38	0	
10	0	0	0	0	513	515	0	832	37	0	
11	0	0	0	0	512	515	0	833	37	0	
12	0	0	0	0	507	514	1	827	37	0	
13	0	0	0	0	506	513	0	832	37	0	
14	0	0	0	0	508	512	0	845	37	0	
15	0	0	0	0	506	512	0	841	37	0	
0	0	0	0	0	507	512	0	815	37	0	
1	0	0	0	0	507	510	0	789	37	0	
2	0	0	0	0	512	512	0	781	37	0	
3	0	0	0	0	515	512	0	765	37	0	
4	0	0	0	0	512	513	0	767	37	0	
5	0	0	0	0	506	512	0	779	37	0	
6	0	0	0	0	512	511	0	790	37	0	
7	0	0	0	0	511	512	0	796	37	0	
8	0	0	0	0	517	511	1	806	37	0	
9	0	0	0	0	505	510	0	808	37	0	
10	0	0	0	0	504	512	0	802	37	0	
11	0	0	0	0	506	513	0	798	37	0	
12	0	0	0	0	509	513	1	804	37	0	
13	0	0	0	0	512	511	0	813	37	0	
14	0	0	0	0	508	513	0	815	37	0	
15	0	0	0	0	510	513	0	811	37	0	
0	0	0	0	0	511	513	1	806	37	0	
1	0	0	0	0	511	512	0	804	37	0	
2	0	0	0	0	511	513	0	805	37	0	
3	0	0	0	0	515	513	0	804	37	0	
4	0	0	0	0	512	515	1	793	37	0	
5	0	0	0	0	505	515	0	775	37	0	
6	0	0	0	0	512	515	0	763	37	0	
7	0	0	0	0	515	516	0	756	37	0	
8	0	0	0	0	510	515	1	749	37	0	
9	0	0	0	0	512	514	0	739	38	0	
10	0	0	0	0	507	514	0	729	37	0	
11	0	0	0	0	512	514	0	721	37	0	
12	0	0	0	0	512	514	1	727	37	0	
13	0	0	0	0	510	512	0	742	37	0	
14	0	0	0	0	510	511	0	757	37	0	
15	0	0	0	0	520	510	0	766	37	0	
0	0	0	0	0	508	510	1	771	37	0	
1	0	0	0	0	505	508	0	775	38	0	
2	0	0	0	0	507	511	0	781	37	0	
3	0	0	0	0	509	512	0	786	37	0	
4	0	0	0	0	510	510	1	791	37	0	
5	0	0	0	0	505	510	0	797	37	0	
6	0	0	0	0	512	511	0	816	37	0	
7	0	0	0	0	504	512	0	836	37	0	
8	0	0	0	0	512	511	0	856	37	0	
9	0	0	0	0	509	511	0	867	38	0	
10	0	0	0	0	508	513	0	874	37	0	
11	0	0	0	0	510	515	0	872	37	0	
12	0	0	0	0	517	513	0	860	37	0	
13	0	0	0	0	506	515	0	843	37	0	
14	0	0	0	0	510	514	0	840	37	0	
15	0	0	0	0	517	514	0	837	37	0	
0	0	0	0	0	505	515	1	844	37	0	
1	0	0	0	0	507	514	0	852	37	0	
2	0	0	0	0	509	516	0	871	37	0	
3	0	0	0	0	511	514	0	885	37	0	
4	0	0	0	0	518	512	1	879	37	0	
5	0	0	0	0	515	510	0	866	37	0	
6	0	0	0	0	507	512	0	854	37	0	
7	0	0	0	0	508	513	0	851	37	0	
8	0	0	0	0	510	512	0	852	37	0	
9	0	0	0	0	511	512	0	841	37	0	
10	0	0	0	0	513	513	0	816	37	0	
11	0	0	0	0	513	514	0	780	37	0	
12	0	0	0	0	506	513	1	737	37	0	
13	0	0	0	0	508	513	0	703	37	0	
14	0	0	0	0	503	514	0	684	37	0	
15	0	0	0	0	511	514	0	687	37	0	
0	0	0	0	0	509	515	1	704	37	0	
1	0	0	0	0	516	513	0	726	38	0	
2	0	0	0	0	511	514	0	747	37	0	
3	0	0	0	0	510	514	0	759	37	0	
4	0	0	0	0	509	514	1	755	37	0	
5	0	0	0	0	513	513	0	742	37	0	
6	0	0	0	0	510	513	0	726	37	0	
7	0	0	0	0	515	511	0	722	37	0	
8	0	0	0	0	513	512	1	733	37	0	
9	0	0	0	0	503	512	0	752	38	0	
10	0	0	0	0	509	514	0	779	37	0	
11	0	0	0	0	510	513	0	802	37	0	
12	0	0	0	0	507	515	1	825	37	0	
13	0	0	0	0	509	514	0	844	37	0	
14	0	0	0	0	511	514	0	863	37	0	
15	0	0	0	0	511	516	0	886	37	0	
0	0	0	0	0	509	515	1	902	37	0	
1	0	0	0	0	513	513	0	917	37	0	
2	0	0	0	0	503	513	0	900	37	0	
3	0	0	0	0	511	513	0	904	37	0	
4	0	0	0	0	510	513	1	899	37	0	
5	0	0	0	0	514	511	0	886	37	0	
6	0	0	0	0	514	510	0	867	37	0	
7	0	0	0	0	509	511	0	842	37	0	
8	0	0	0	0	503	508	1	817	37	0	
9	0	0	0	0	512	509	0	805	37	0	
10	0	0	0	0	507	510	0	791	37	0	
11	0	0	0	0	514	512	0	781	37	0	
12	0	0	0	0	508	511	1	781	37	0	
13	0	0	0	0	510	510	0	790	37	0	
14	0	0	0	0	512	511	0	795	37	0	
15	0	0	0	0	509	511	0	790	37	0	
0	0	0	0	0	519	510	0	776	37	0	
1	0	0	0	0	514	511	0	754	37	0	
2	0	0	0	0	504	513	0	728	37	0	
3	0	0	0	0	511	513	0	696	37	0	
4	0	0	0	0	508	513	1	671	37	0	
5	0	0	0	0	510	511	0	646	37	0	
6	0	0	0	0	512	512	0	637	37	0	
7	0	0	0	0	509	513	0	615	37	0	
8	0	0	0	0	513	512	1	612	37	0	
9	0	0	0	0	508	512	0	608	38	0	
10	0	0	0	0	508	513	0	603	37	0	
11	0	0	0	0	513	515	0	599	37	0	
12	0	0	0	0	514	515	1	608	37	0	
13	0	0	0	0	507	514	0	630	37	0	
14	0	0	0	0	504	515	0	661	37	0	
15	0	0	0	0	510	514	0	693	37	0	
0	0	0	0	0	511	513	0	719	37	0	
1	0	0	0	0	508	512	0	737	38	0	
2	0	0	0	0	514	513	0	742	37	0	
3	0	0	0	0	506	514	0	739	37	0	
4	0	0	0	0	510	514	1	732	37	0	
5	0	0	0	0	511	513	0	731	37	0	
6	0	0	0	0	512	512	0	735	37	0	
7	0	0	0	0	514	514	0	734	37	0	
8	0	0	0	0	512	515	0	729	37	0	
9	0	0	0	0	513	514	0	721	38	0	
10	0	0	0	0	518	511	0	722	37	0	
11	0	0	0	0	505	511	0	728	37	0	
12	0	0	0	0	509	509	0	721	37	0	
13	0	0	0	0	505	510	0	720	37	0	
14	0	0	0	0	510	508	0	720	37	0	
15	0	0	0	0	513	508	0	713	37	0	
0	0	0	0	0	516	508	0	706	37	0	
1	0	0	0	0	510	511	0	708	38	0	
2	0	0	0	0	515	512	0	719	37	0	
3	0	0	0	0	510	513	0	737	37	0	
4	0	0	0	0	508	512	1	763	37	0	
5	0	0	0	0	514	512	0	781	37	0	
6	0	0	0	0	512	514	0	807	37	0	
7	0	0	0	0	511	516	0	827	37	0	
8	0	0	0	0	507	513	1	834	37	0	
9	0	0	0	0	504	513	0	839	38	0	
10	0	0	0	0	505	513	0	824	37	0	
11	0	0	0	0	510	514	0	817	37	0	
12	0	0	0	0	515	514	1	805	37	0	
13	0	0	0	0	512	514	0	782	37	0	
14	0	0	0	0	513	512	0	757	37	0	
15	0	0	0	0	509	512	0	740	37	0	
0	0	0	0	0	511	511	1	724	37	0	
1	0	0	0	0	512	511	0	710	38	0	
2	0	0	0	0	508	512	0	689	37	0	
3	0	0	0	0	517	512	0	675	37	0	
4	0	0	0	0	512	511	0	673	37	0	
5	0	0	0	0	511	512	0	682	37	0	
6	0	0	0	0	511	514	0	701	37	0	
7	0	0	0	0	515	514	0	728	37	0	
8	0	0	0	0	508	512	1	748	37	0	
9	0	0	0	0	508	511	0	758	38	0	
10	0	0	0	0	509	511	0	757	37	0	
11	0	0	0	0	503	512	0	758	37	0	
12	0	0	0	0	514	510	1	764	37	0	
13	0	0	0	0	508	509	0	770	37	0	
14	0	0	0	0	513	510	0	770	37	0	
15	0	0	0	0	510	509	0	775	37	0	
0	0	0	0	0	508	511	1	776	37	0	
1	0	0	0	0	513	508	0	771	38	0	
2	0	0	0	0	513	510	0	759	37	0	
3	0	0	0	0	510	511	0	747	37	0	
4	0	0	0	0	508	512	1	736	37	0	
5	0	0	0	0	507	510	0	732	37	0	
6	0	0	0	0	513	509	0	723	37	0	
7	0	0	0	0	507	508	0	721	37	0	
8	0	0	0	0	507	507	0	720	37	0	
9	0	0	0	0	515	509	0	711	37	0	
10	0	0	0	0	506	509	0	696	37	0	
11	0	0	0	0	509	510	0	681	37	0	
12	0	0	0	0	514	511	1	673	37	0	
13	0	0	0	0	508	511	0	677	37	0	
14	0	0	0	0	514	512	0	681	37	0	
15	0	0	0	0	508	512	0	697	37	0	
0	0	0	0	0	505	510	0	715	37	0	
1	0	0	0	0	508	511	0	731	38	0	
2	0	0	0	0	511	512	0	745	37	0	
3	0	0	0	0	515	511	0	759	37	0	
4	0	0	0	0	514	510	0	761	37	0	
5	0	0	0	0	513	509	0	758	37	0	
6	0	0	0	0	511	511	0	758	37	0	
7	0	0	0	0	512	513	0	758	37	0	
8	0	0	0	0	506	513	0	754	37	0	
9	0	0	0	0	504	514	0	752	38	0	
10	0	0	0	0	514	515	0	754	37	0	
11	0	0	0	0	515	517	0	758	37	0	
12	0	0	0	0	516	515	0	756	37	0	
13	0	0	0	0	505	513	0	752	37	0	
14	0	0	0	0	512	511	0	754	37	0	
15	0	0	0	0	514	512	0	754	37	0	
0	0	0	0	0	513	513	1	754	37	0	
1	0	0	0	0	505	512	0	758	38	0	
2	0	0	0	0	513	513	0	756	37	0	
3	0	0	0	0	507	513	0	741	37	0	
4	0	0	0	0	513	514	1	719	37	0	
5	0	0	0	0	508	511	0	701	37	0	
6	0	0	0	0	509	512	0	688	37	0	
7	0	0	0	0	507	513	0	680	37	0	
8	0	0	0	0	508	514	1	674	37	0	
9	0	0	0	0	510	512	0	661	37	0	
10	0	0	0	0	508	513	0	638	37	0	
11	0	0	0	0	507	512	0	607	37	0	
12	0	0	0	0	515	513	1	588	37	0	
13	0	0	0	0	513	513	0	591	37	0	
14	0	0	0	0	510	513	0	598	37	0	
15	0	0	0	0	509	511	0	614	37	0	
0	0	0	0	0	511	512	1	630	37	0	
1	0	0	0	0	512	512	0	647	38	0	
2	0	0	0	0	509	512	0	670	37	0	
3	0	0	0	0	508	513	0	697	37	0	
4	0	0	0	0	512	515	1	736	37	0	
5	0	0	0	0	505	513	0	788	37	0	
6	0	0	0	0	509	513	0	833	37	0	
7	0	0	0	0	516	514	0	860	37	0	
8	0	0	0	0	508	515	1	864	37	0	
9	0	0	0	0	511	512	0	864	37	0	
10	0	0	0	0	510	513	0	862	37	0	
11	0	0	0	0	509	515	0	848	37	0	
12	0	0	0	0	511	514	1	830	37	0	
13	0	0	0	0	510	512	0	812	37	0	
14	0	0	0	0	509	513	0	799	37	0	
15	0	0	0	0	513	515	0	796	37	0	
0	0	0	0	0	508	514	1	791	37	0	
1	0	0	0	0	509	515	0	792	38	0	
2	0	0	0	0	507	513	0	789	37	0	
3	0	0	0	0	510	515	0	784	37	0	
4	0	0	0	0	513	513	0	776	37	0	
5	0	0	0	0	510	513	0	761	37	0	
6	0	0	0	0	511	515	0	748	37	0	
7	0	0	0	0	518	516	0	740	37	0	
8	0	0	0	0	511	516	1	736	37	0	
9	0	0	0	0	509	515	0	743	38	0	
10	0	0	0	0	511	515	0	751	37	0	
11	0	0	0	0	515	515	0	751	37	0	
12	0	0	0	0	507	515	0	742	37	0	
13	0	0	0	0	503	514	0	728	37	0	
14	0	0	0	0	507	514	0	723	37	0	
15	0	0	0	0	508	513	0	721	37	0	
0	0	0	0	0	513	511	0	724	37	0	
1	0	0	0	0	514	512	0	737	38	0	
2	0	0	0	0	518	513	0	756	37	0	
3	0	0	0	0	505	512	0	777	37	0	
4	0	0	0	0	512	510	0	794	37	0	
5	0	0	0	0	509	510	0	803	37	0	
6	0	0	0	0	512	509	0	799	37	0	
7	0	0	0	0	512	510	0	786	37	0	
8	0	0	0	0	508	510	0	759	37	0	
9	0	0	0	0	505	510	0	732	38	0	
10	0	0	0	0	509	510	0	714	37	0	
11	0	0	0	0	511	511	0	700	37	0	
12	0	0	0	0	507	511	1	692	37	0	
13	0	0	0	0	515	510	0	686	37	0	
14	0	0	0	0	511	512	0	680	37	0	
15	0	0	0	0	513	512	0	679	37	0	
0	0	0	0	0	507	513	1	684	37	0	
1	0	0	0	0	516	514	0	704	37	0	
2	0	0	0	0	505	512	0	703	37	0	
3	0	0	0	0	513	512	0	697	37	0	
4	0	0	0	0	500	512	0	696	37	0	
5	0	0	0	0	506	512	0	702	37	0	
6	0	0	0	0	505	512	0	711	37	0	
7	0	0	0	0	518	512	0	729	37	0	
8	0	0	0	0	510	511	0	751	37	0	
9	0	0	0	0	509	510	0	774	38	0	
10	0	0	0	0	513	511	0	789	37	0	
11	0	0	0	0	513	512	0	793	37	0	
12	0	0	0	0	508	513	1	793	37	0	
13	0	0	0	0	512	510	0	787	37	0	
14	0	0	0	0	510	510	0	778	37	0	
15	0	0	0	0	504	512	0	761	37	0	
0	0	0	0	0	502	514	1	744	37	0	
1	0	0	0	0	507	512	0	731	38	0	
2	0	0	0	0	516	513	0	723	37	0	
3	0	0	0	0	507	513	0	711	37	0	
4	0	0	0	0	513	514	1	699	37	0	
5	0	0	0	0	512	513	0	694	37	0	
6	0	0	0	0	511	514	0	700	37	0	
7	0	0	0	0	510	514	0	707	37	0	
8	0	0	0	0	507	513	0	710	37	0	
9	0	0	0	0	515	512	0	697	38	0	
10	0	0	0	0	510	513	0	675	37	0	
11	0	0	0	0	512	512	0	658	37	0	
12	0	0	0	0	504	510	0	649	37	0	
13	0	0	0	0	501	511	0	648	37	0	
14	0	0	0	0	512	512	0	639	37	0	
15	0	0	0	0	510	515	0	636	37	0	
0	0	0	0	0	511	514	0	651	37	0	
1	0	0	0	0	513	514	0	673	38	0	
2	0	0	0	0	507	513	0	692	37	0	
3	0	0	0	0	510	512	0	708	37	0	
4	0	0	0	0	505	513	1	716	38	0	
5	0	0	0	0	506	512	0	714	37	0	
6	0	0	0	0	510	513	0	700	37	0	
7	0	0	0	0	503	511	0	675	37	0	
8	0	0	0	0	514	510	0	653	37	0	
9	0	0	0	0	509	511	0	623	37	0	
10	0	0	0	0	514	511	0	591	37	0	
11	0	0	0	0	508	512	0	554	37	0	
12	0	0	0	0	511	511	1	512	37	0	
13	0	0	0	0	513	510	0	481	37	0	
14	0	0	0	0	511	510	0	458	37	0	
15	0	0	0	0	509	512	0	448	37	0	
0	0	0	0	0	508	512	1	444	37	0	
1	0	0	0	0	518	512	0	453	38	0	
2	0	0	0	0	510	511	0	468	37	0	
3	0	0	0	0	508	511	0	503	37	0	
4	0	0	0	0	505	509	0	546	37	0	
5	0	0	0	0	511	509	0	581	37	0	
6	0	0	0	0	509	512	0	600	37	0	
7	0	0	0	0	515	511	0	609	37	0	
8	0	0	0	0	509	511	0	610	37	0	
9	0	0	0	0	514	509	0	619	38	0	
10	0	0	0	0	514	511	0	628	37	0	
11	0	0	0	0	513	512	0	638	37	0	
12	0	0	0	0	508	513	1	647	37	0	
13	0	0	0	0	512	510	0	664	37	0	
14	0	0	0	0	508	511	0	684	37	0	
15	0	0	0	0	508	512	0	704	37	0	
0	0	0	0	0	513	515	1	716	37	0	
1	0	0	0	0	514	513	0	716	37	0	
2	0	0	0	0	509	514	0	705	37	0	
3	0	0	0	0	510	514	0	694	37	0	
4	0	0	0	0	503	513	1	689	37	0	
5	0	0	0	0	507	512	0	679	37	0	
6	0	0	0	0	516	512	0	667	37	0	
7	0	0	0	0	505	513	0	661	37	0	
8	0	0	0	0	510	512	1	659	37	0	
9	0	0	0	0	509	511	0	665	37	0	
10	0	0	0	0	514	510	0	670	37	0	
11	0	0	0	0	513	511	0	668	37	0	
12	0	0	0	0	505	512	1	661	37	0	
13	0	0	0	0	512	511	0	653	37	0	
14	0	0	0	0	514	512	0	639	37	0	
15	0	0	0	0	511	513	0	628	37	0	
0	0	0	0	0	511	511	1	615	37	0	
1	0	0	0	0	512	511	0	616	37	0	
2	0	0	0	0	505	511	0	634	37	0	
3	0	0	0	0	501	512	0	658	37	0	
4	0	0	0	0	504	511	0	675	37	0	
5	0	0	0	0	509	511	0	694	37	0	
6	0	0	0	0	518	513	0	711	37	0	
7	0	0	0	0	512	512	0	729	37	0	
8	0	0	0	0	510	510	0	736	37	0	
9	0	0	0	0	503	508	0	733	38	0	
10	0	0	0	0	511	510	0	716	37	0	
11	0	0	0	0	509	512	0	692	37	0	
12	0	0	0	0	519	512	1	676	37	0	
13	0	0	0	0	511	514	0	661	37	0	
14	0	0	0	0	509	515	0	642	37	0	
15	0	0	0	0	510	514	0	617	37	0	
0	0	0	0	0	508	513	1	598	37	0	
1	0	0	0	0	518	512	0	587	37	0	
2	0	0	0	0	511	513	0	579	37	0	
3	0	0	0	0	506	514	0	569	37	0	
4	0	0	0	0	512	512	1	553	37	0	
5	0	0	0	0	509	509	0	545	37	0	
6	0	0	0	0	511	508	0	537	37	0	
7	0	0	0	0	507	510	0	540	37	0	
8	0	0	0	0	509	509	1	543	37	0	
9	0	0	0	0	508	509	0	544	38	0	
10	0	0	0	0	510	510	0	547	37	0	
11	0	0	0	0	513	510	0	560	37	0	
12	0	0	0	0	513	509	0	590	37	0	
13	0	0	0	0	517	509	0	627	37	0	
14	0	0	0	0	512	510	0	662	37	0	
15	0	0	0	0	504	509	0	687	37	0	
0	0	0	0	0	513	511	1	705	37	0	
1	0	0	0	0	517	510	0	712	37	0	
2	0	0	0	0	506	511	0	707	37	0	
3	0	0	0	0	510	512	0	682	37	0	
4	0	0	0	0	509	512	1	647	37	0	
5	0	0	0	0	508	512	0	620	37	0	
6	0	0	0	0	513	511	0	588	37	0	
7	0	0	0	0	505	511	0	555	37	0	
8	0	0	0	0	508	510	1	528	37	0	
9	0	0	0	0	505	510	0	512	37	0	
10	0	0	0	0	513	509	0	508	37	0	
11	0	0	0	0	511	510	0	517	37	0	
12	0	0	0	0	509	510	0	525	37	0	
13	0	0	0	0	511	511	0	534	37	0	
14	0	0	0	0	506	510	0	551	37	0	
15	0	0	0	0	511	512	0	586	37	0	
0	0	0	0	0	515	513	1	628	37	0	
1	0	0	0	0	508	513	0	666	38	0	
2	0	0	0	0	509	512	0	686	37	0	
3	0	0	0	0	510	512	0	692	37	0	
4	0	0	0	0	515	510	0	711	37	0	
5	0	0	0	0	513	511	0	702	37	0	
6	0	0	0	0	508	513	0	688	37	0	
7	0	0	0	0	513	513	0	667	37	0	
8	0	0	0	0	506	515	1	630	37	0	
9	0	0	0	0	511	515	0	598	38	0	
10	0	0	0	0	513	515	0	562	37	0	
11	0	0	0	0	511	514	0	533	37	0	
12	0	0	0	0	515	515	0	502	37	0	
13	0	0	0	0	510	513	0	486	37	0	
14	0	0	0	0	507	514	0	487	37	0	
15	0	0	0	0	510	513	0	504	37	0	
0	0	0	0	0	515	512	1	529	37	0	
1	0	0	0	0	509	513	0	559	38	0	
2	0	0	0	0	506	513	0	587	37	0	
3	0	0	0	0	518	512	0	608	37	0	
4	0	0	0	0	509	511	0	624	37	0	
5	0	0	0	0	506	510	0	637	37	0	
6	0	0	0	0	512	511	0	650	37	0	
7	0	0	0	0	510	512	0	671	37	0	
8	0	0	0	0	509	510	0	697	37	0	
9	0	0	0	0	508	509	0	732	37	0	
10	0	0	0	0	509	511	0	769	37	0	
11	0	0	0	0	507	513	0	793	37	0	
12	0	0	0	0	511	513	1	804	37	0	
13	0	0	0	0	513	511	0	796	37	0	
14	0	0	0	0	509	510	0	777	37	0	
15	0	0	0	0	519	511	0	758	37	0	
0	0	0	0	0	513	511	1	738	37	0	
1	0	0	0	0	512	511	0	720	38	0	
2	0	0	0	0	510	511	0	705	37	0	
3	0	0	0	0	507	510	0	683	37	0	
4	0	0	0	0	506	511	1	659	37	0	
5	0	0	0	0	508	509	0	643	37	0	
6	0	0	0	0	511	511	0	634	37	0	
7	0	0	0	0	514	511	0	637	37	0	
8	0	0	0	0	519	510	1	647	37	0	
9	0	0	0	0	503	510	0	656	38	0	
10	0	0	0	0	507	509	0	652	37	0	
11	0	0	0	0	506	511	0	647	37	0	
12	0	0	0	0	517	512	1	640	37	0	
13	0	0	0	0	512	512	0	632	37	0	
14	0	0	0	0	502	512	0	634	37	0	
15	0	0	0	0	509	513	0	643	37	0	
0	0	0	0	0	511	513	1	642	37	0	
1	0	0	0	0	516	514	0	639	38	0	
2	0	0	0	0	510	513	0	632	37	0	
3	0	0	0	0	511	514	0	639	37	0	
4	0	0	0	0	509	512	0	648	37	0	
5	0	0	0	0	509	510	0	662	37	0	
6	0	0	0	0	507	512	0	683	37	0	
7	0	0	0	0	514	513	0	707	37	0	
8	0	0	0	0	505	512	0	723	37	0	
9	0	0	0	0	510	511	0	725	37	0	
10	0	0	0	0	512	511	0	716	37	0	
11	0	0	0	0	507	511	0	692	37	0	
12	0	0	0	0	509	511	1	668	37	0	
13	0	0	0	0	516	509	0	617	37	0	
14	0	0	0	0	513	510	0	563	37	0	
15	0	0	0	0	515	512	0	504	37	0	
0	0	0	0	0	513	511	0	445	37	0	
1	0	0	0	0	509	510	0	397	38	0	
2	0	0	0	0	506	512	0	349	37	0	
3	0	0	0	0	503	513	0	300	37	0	
4	0	0	0	0	510	512	0	246	37	0	
5	0	0	0	0	511	513	0	191	37	0	
6	0	0	0	0	508	512	0	129	37	0	
7	0	0	0	0	504	512	0	52	37	0	
8	0	0	0	0	508	514	1	0	37	0	
9	0	0	0	0	512	512	0	0	37	0	
10	0	0	0	0	505	511	0	0	37	0	
11	0	0	0	0	509	513	0	0	37	0	
12	0	0	0	0	505	516	1	0	37	0	
13	0	0	0	0	515	514	0	0	37	0	
14	0	0	0	0	512	513	0	0	37	0	
15	0	0	0	0	512	512	0	0	37	0	
0	0	0	0	0	508	511	1	0	37	0	
1	0	0	0	0	510	513	0	0	38	0	
2	0	0	0	0	510	513	0	0	37	0	
3	0	0	0	0	512	514	0	0	37	0	
4	0	0	0	0	508	513	0	0	37	0	
5	0	0	0	0	513	513	0	0	37	0	
6	0	0	0	0	512	515	0	0	37	0	
7	0	0	0	0	515	514	0	0	37	0	
8	0	0	0	0	509	515	0	0	37	0	
9	0	0	0	0	511	515	0	0	38	0	
10	0	0	0	0	506	514	0	0	37	0	
11	0	0	0	0	512	514	0	0	37	0	
12	0	0	0	0	510	512	0	0	37	0	
13	0	0	0	0	508	512	0	0	37	0	
14	0	0	0	0	508	511	0	0	37	0	
15	0	0	0	0	510	512	0	0	37	0	
0	0	0	0	0	506	511	0	0	37	0	
1	0	0	0	0	511	511	0	0	37	0	
2	0	0	0	0	507	512	0	0	37	0	
3	0	0	0	0	509	512	0	0	37	0	
4	0	0	0	0	519	511	1	0	37	0	
5	0	0	0	0	512	509	0	0	37	0	
6	0	0	0	0	509	511	0	0	37	0	
7	0	0	0	0	514	512	0	0	37	0	
8	0	0	0	0	516	512	1	0	37	0	
9	0	0	0	0	507	511	0	0	37	0	
10	0	0	0	0	506	511	0	0	37	0	
11	0	0	0	0	512	512	0	0	37	0	
12	0	0	0	0	509	512	1	0	37	0	
13	0	0	0	0	508	509	0	0	37	0	
14	0	0	0	0	505	508	0	0	37	0	
15	0	0	0	0	509	510	0	0	37	0	
0	0	0	0	0	516	511	1	0	37	0	
1	0	0	0	0	507	511	0	0	37	0	
2	0	0	0	0	515	512	0	0	37	0	
3	0	0	0	0	513	513	0	0	37	0	
4	0	0	0	0	504	513	1	0	37	0	
5	0	0	0	0	507	511	0	0	37	0	
6	0	0	0	0	509	512	0	0	37	0	
7	0	0	0	0	507	512	0	0	37	0	
8	0	0	0	0	520	511	1	0	37	0	
9	0	0	0	0	511	509	0	0	38	0	
10	0	0	0	0	512	511	0	0	37	0	
11	0	0	0	0	517	514	0	0	37	0	
12	0	0	0	0	503	513	0	0	37	0	
13	0	0	0	0	515	512	0	0	37	0	
14	0	0	0	0	510	514	0	0	37	0	
15	0	0	0	0	510	513	0	0	37	0	
0	0	0	0	0	506	512	1	0	37	0	
1	0	0	0	0	511	512	0	0	38	0	
2	0	0	0	0	512	513	0	0	37	0	
3	0	0	0	0	511	514	0	0	37	0	
4	0	0	0	0	504	514	0	0	37	0	
5	0	0	0	0	505	513	0	0	37	0	
6	0	0	0	0	506	513	0	0	37	0	
7	0	0	0	0	508	513	0	0	37	0	
8	0	0	0	0	510	515	1	0	37	0	
9	0	0	0	0	512	513	0	0	38	0	
10	0	0	0	0	514	512	0	0	37	0	
11	0	0	0	0	508	513	0	0	37	0	
12	0	0	0	0	512	513	0	0	37	0	
13	0	0	0	0	512	513	0	0	37	0	
14	0	0	0	0	517	512	0	0	37	0	
15	0	0	0	0	510	513	0	0	37	0	
0	0	0	0	0	504	511	0	0	37	0	
1	0	0	0	0	508	511	0	0	37	0	
2	0	0	0	0	510	512	0	0	37	0	
3	0	0	0	0	512	511	0	0	37	0	
4	0	0	0	0	509	511	0	0	37	0	
5	0	0	0	0	506	512	0	0	37	0	
6	0	0	0	0	515	512	0	0	37	0	
7	0	0	0	0	511	510	0	0	37	0	
8	0	0	0	0	505	511	1	0	37	0	
9	0	0	0	0	512	509	0	0	37	0	
10	0	0	0	0	508	509	0	0	37	0	
11	0	0	0	0	515	510	0	0	37	0	
12	0	0	0	0	512	510	0	0	37	0	
13	0	0	0	0	507	510	0	0	37	0	
14	0	0	0	0	502	513	0	0	37	0	
15	0	0	0	0	513	512	0	0	37	0	
0	0	0	0	0	511	513	0	0	37	0	
1	0	0	0	0	515	512	0	0	38	0	
2	0	0	0	0	511	512	0	0	37	0	
3	0	0	0	0	510	512	0	0	37	0	
4	0	0	0	0	510	509	0	0	37	0	
5	0	0	0	0	506	509	0	0	37	0	
6	0	0	0	0	515	509	0	0	37	0	
7	0	0	0	0	510	508	0	0	37	0	
8	0	0	0	0	509	510	1	0	37	0	
9	0	0	0	0	510	511	0	0	37	0	
10	0	0	0	0	512	511	0	0	37	0	
11	0	0	0	0	508	513	0	0	37	0	
12	0	0	0	0	508	512	1	0	37	0	
13	0	0	0	0	505	512	0	0	37	0	
14	0	0	0	0	510	513	0	0	37	0	
15	0	0	0	0	505	513	0	0	37	0	
0	0	0	0	0	509	514	1	0	37	0	
1	0	0	0	0	511	515	0	0	38	0	
2	0	0	0	0	512	514	0	0	37	0	
3	0	0	0	0	511	515	0	0	37	0	
4	0	0	0	0	506	514	1	0	37	0	
5	0	0	0	0	512	512	0	0	37	0	
6	0	0	0	0	511	511	0	0	37	0	
7	0	0	0	0	512	510	0	0	37	0	
8	0	0	0	0	509	511	0	0	37	0	
9	0	0	0	0	510	513	0	0	37	0	
10	0	0	0	0	508	513	0	0	37	0	
11	0	0	0	0	520	513	0	0	37	0	
12	0	0	0	0	506	511	0	0	37	0	
13	0	0	0	0	510	510	0	0	37	0	
14	0	0	0	0	516	510	0	0	37	0	
15	0	0	0	0	508	510	0	0	37	0	
0	0	0	0	0	515	511	1	0	37	0	
1	0	0	0	0	503	510	0	0	37	0	
2	0	0	0	0	510	512	0	0	37	0	
3	0	0	0	0	506	513	0	0	37	0	
4	0	0	0	0	505	514	1	0	37	0	
5	0	0	0	0	504	513	0	0	37	0	
6	0	0	0	0	512	513	0	0	37	0	
7	0	0	0	0	514	514	0	80	37	0	
8	0	0	0	0	509	514	0	131	37	0	
9	0	0	0	0	506	514	0	190	37	0	
10	0	0	0	0	513	513	0	253	37	0	
11	0	0	0	0	516	515	0	300	37	0	
12	0	0	0	0	512	513	0	340	37	0	
13	0	0	0	0	506	513	0	369	37	0	
14	0	0	0	0	508	513	0	394	37	0	
15	0	0	0	0	512	512	0	420	37	0	
0	0	0	0	0	508	511	0	435	37	0	
1	0	0	0	0	507	512	0	435	38	0	
2	0	0	0	0	506	512	0	430	37	0	
3	0	0	0	0	511	513	0	429	37	0	
4	0	0	0	0	505	515	1	435	37	0	
5	0	0	0	0	513	513	0	444	37	0	
6	0	0	0	0	515	511	0	446	37	0	
7	0	0	0	0	500	512	0	432	37	0	
8	0	0	0	0	511	511	1	423	37	0	
9	0	0	0	0	512	511	0	419	37	0	
10	0	0	0	0	510	511	0	400	37	0	
11	0	0	0	0	510	512	0	356	37	0	
12	0	0	0	0	510	512	1	322	37	0	
13	0	0	0	0	512	511	0	289	37	0	
14	0	0	0	0	513	512	0	263	37	0	
15	0	0	0	0	510	514	0	230	37	0	
0	0	0	0	0	506	512	1	206	37	0	
1	0	0	0	0	508	511	0	194	38	0	
2	0	0	0	0	510	512	0	202	37	0	
3	0	0	0	0	512	513	0	222	37	0	
4	0	0	0	0	517	513	0	247	37	0	
5	0	0	0	0	510	512	0	268	37	0	
6	0	0	0	0	511	514	0	282	37	0	
7	0	0	0	0	509	514	0	291	37	0	
8	0	0	0	0	509	511	0	305	37	0	
9	0	0	0	0	507	511	0	307	37	0	
10	0	0	0	0	508	510	0	330	37	0	
11	0	0	0	0	509	511	0	360	37	0	
12	0	0	0	0	506	510	1	388	37	0	
13	0	0	0	0	510	510	0	415	37	0	
14	0	0	0	0	511	509	0	448	37	0	
15	0	0	0	0	512	509	0	485	37	0	
0	0	0	0	0	510	510	1	524	37	0	
1	0	0	0	0	513	508	0	562	38	0	
2	0	0	0	0	520	509	0	604	37	0	
3	0	0	0	0	511	511	0	642	37	0	
4	0	0	0	0	501	511	1	663	37	0	
5	0	0	0	0	513	511	0	669	37	0	
6	0	0	0	0	508	513	0	665	37	0	
7	0	0	0	0	511	513	0	647	37	0	
8	0	0	0	0	511	512	0	616	37	0	
9	0	0	0	0	515	509	0	585	38	0	
10	0	0	0	0	511	508	0	557	37	0	
11	0	0	0	0	508	508	0	505	37	0	
12	0	0	0	0	515	510	1	472	37	0	
13	0	0	0	0	514	510	0	446	37	0	
14	0	0	0	0	518	511	0	444	37	0	
15	0	0	0	0	504	510	0	429	37	0	
0	0	0	0	0	508	508	0	423	37	0	
1	0	0	0	0	509	510	0	426	38	0	
2	0	0	0	0	505	509	0	435	37	0	
3	0	0	0	0	512	511	0	443	37	0	
4	0	0	0	0	504	509	1	454	37	0	
5	0	0	0	0	512	509	0	463	37	0	
6	0	0	0	0	510	510	0	468	37	0	
7	0	0	0	0	508	512	0	478	37	0	
8	0	0	0	0	511	513	1	496	37	0	
9	0	0	0	0	510	513	0	519	38	0	
10	0	0	0	0	514	514	0	541	37	0	
11	0	0	0	0	517	514	0	557	37	0	
12	0	0	0	0	517	514	1	563	37	0	
13	0	0	0	0	504	513	0	567	37	0	
14	0	0	0	0	507	514	0	572	37	0	
15	0	0	0	0	502	515	0	585	37	0	
0	0	0	0	0	512	514	1	605	37	0	
1	0	0	0	0	506	512	0	624	37	0	
2	0	0	0	0	511	512	0	638	37	0	
3	0	0	0	0	506	511	0	649	37	0	
4	0	0	0	0	509	509	0	668	37	0	
5	0	0	0	0	513	509	0	690	37	0	
6	0	0	0	0	515	508	0	708	37	0	
7	0	0	0	0	511	510	0	715	37	0	
8	0	0	0	0	510	511	1	718	37	0	
9	0	0	0	0	510	510	0	713	38	0	
10	0	0	0	0	519	511	0	706	37	0	
11	0	0	0	0	513	511	0	699	37	0	
12	0	0	0	0	507	510	0	708	37	0	
13	0	0	0	0	506	511	0	723	37	0	
14	0	0	0	0	508	511	0	747	37	0	
15	0	0	0	0	510	512	0	763	37	0	
0	0	0	0	0	503	513	1	776	37	0	
1	0	0	0	0	515	514	0	788	38	0	
2	0	0	0	0	509	513	0	793	37	0	
3	0	0	0	0	508	513	0	785	37	0	
4	0	0	0	0	512	512	1	766	37	0	
5	0	0	0	0	513	512	0	748	37	0	
6	0	0	0	0	509	513	0	729	37	0	
7	0	0	0	0	511	513	0	709	37	0	
8	0	0	0	0	501	512	1	702	37	0	
9	0	0	0	0	511	511	0	712	37	0	
10	0	0	0	0	508	513	0	731	37	0	
11	0	0	0	0	509	516	0	750	37	0	
12	0	0	0	0	515	516	1	764	37	0	
13	0	0	0	0	517	513	0	797	37	0	
14	0	0	0	0	506	512	0	796	37	0	
15	0	0	0	0	512	515	0	808	37	0	
0	0	0	0	0	507	515	1	807	37	0	
1	0	0	0	0	512	513	0	817	38	0	
2	0	0	0	0	508	513	0	828	37	0	
3	0	0	0	0	509	513	0	836	37	0	
4	0	0	0	0	509	514	1	836	37	0	
5	0	0	0	0	513	513	0	833	37	0	
6	0	0	0	0	508	514	0	828	37	0	
7	0	0	0	0	515	515	0	835	37	0	
8	0	0	0	0	515	515	1	845	37	0	
9	0	0	0	0	507	516	0	862	37	0	
10	0	0	0	0	508	514	0	877	37	0	
11	0	0	0	0	513	513	0	881	37	0	
12	0	0	0	0	504	511	0	876	37	0	
13	0	0	0	0	509	512	0	871	37	0	
14	0	0	0	0	507	514	0	873	37	0	
15	0	0	0	0	508	515	0	879	37	0	
0	0	0	0	0	502	515	1	881	37	0	
1	0	0	0	0	512	514	0	879	38	0	
2	0	0	0	0	516	514	0	871	37	0	
3	0	0	0	0	513	514	0	856	37	0	
4	0	0	0	0	504	511	0	843	37	0	
5	0	0	0	0	512	511	0	829	37	0	
6	0	0	0	0	509	512	0	807	37	0	
7	0	0	0	0	508	515	0	791	37	0	
8	0	0	0	0	511	513	0	784	37	0	
9	0	0	0	0	507	512	0	786	38	0	
10	0	0	0	0	506	512	0	795	37	0	
11	0	0	0	0	504	511	0	820	37	0	
12	0	0	0	0	515	511	1	854	37	0	
13	0	0	0	0	520	511	0	885	37	0	
14	0	0	0	0	509	510	0	898	37	0	
15	0	0	0	0	517	512	0	903	37	0	
0	0	0	0	0	506	512	0	911	37	0	
1	0	0	0	0	513	511	0	918	37	0	
2	0	0	0	0	507	512	0	924	37	0	
3	0	0	0	0	512	513	0	927	37	0	
4	0	0	0	0	514	513	1	933	37	0	
5	0	0	0	0	507	511	0	939	37	0	
6	0	0	0	0	511	509	0	940	37	0	
7	0	0	0	0	511	513	0	926	37	0	
8	0	0	0	0	508	510	0	903	37	0	
9	0	0	0	0	503	510	0	895	37	0	
10	0	0	0	0	512	511	0	878	37	0	
11	0	0	0	0	507	511	0	879	37	0	
12	0	0	0	0	508	509	1	866	37	0	
13	0	0	0	0	510	509	0	847	37	0	
14	0	0	0	0	515	511	0	819	37	0	
15	0	0	0	0	508	512	0	816	37	0	
0	0	0	0	0	510	512	1	803	37	0	
1	0	0	0	0	506	511	0	822	37	0	
2	0	0	0	0	515	512	0	864	37	0	
3	0	0	0	0	512	513	0	916	37	0	
4	0	0	0	0	509	515	1	971	37	0	
5	0	0	0	0	508	515	0	1012	37	0	
6	0	0	0	0	511	515	0	1018	37	0	
7	0	0	0	0	514	515	0	1018	37	0	
8	0	0	0	0	507	516	1	1019	37	0	
9	0	0	0	0	515	513	0	1018	38	0	
10	0	0	0	0	508	513	0	1018	37	0	
11	0	0	0	0	508	514	0	1017	37	0	
12	0	0	0	0	508	512	0	1019	37	0	
13	0	0	0	0	511	512	0	1018	37	0	
14	0	0	0	0	508	512	0	1018	37	0	
15	0	0	0	0	511	513	0	957	37	0	
0	0	0	0	0	503	513	1	931	37	0	
1	0	0	0	0	513	514	0	908	38	0	
2	0	0	0	0	507	514	0	891	37	0	
3	0	0	0	0	507	513	0	879	37	0	
4	0	0	0	0	514	513	1	864	37	0	
5	0	0	0	0	508	514	0	862	37	0	
6	0	0	0	0	502	513	0	872	37	0	
7	0	0	0	0	511	513	0	888	37	0	
8	0	0	0	0	512	513	0	909	37	0	
9	0	0	0	0	506	511	0	935	37	0	
10	0	0	0	0	505	511	0	964	37	0	
11	0	0	0	0	515	513	0	990	37	0	
12	0	0	0	0	513	513	1	998	37	0	
13	0	0	0	0	514	513	0	1005	37	0	
14	0	0	0	0	511	514	0	1010	37	0	
15	0	0	0	0	512	511	0	1016	37	0	
0	0	0	0	0	515	512	1	1019	37	0	
1	0	0	0	0	511	510	0	1018	38	0	
2	0	0	0	0	508	511	0	1018	37	0	
3	0	0	0	0	509	513	0	1017	37	0	
4	0	0	0	0	506	511	1	1018	37	0	
5	0	0	0	0	509	511	0	1018	37	0	
6	0	0	0	0	506	513	0	1018	37	0	
7	0	0	0	0	512	513	0	1017	37	0	
8	0	0	0	0	508	512	1	1018	37	0	
9	0	0	0	0	512	512	0	1017	37	0	
10	0	0	0	0	514	513	0	954	37	0	
11	0	0	0	0	513	512	0	925	37	0	
12	0	0	0	0	520	513	1	897	37	0	
13	0	0	0	0	511	512	0	870	37	0	
14	0	0	0	0	510	513	0	848	37	0	
15	0	0	0	0	509	513	0	837	37	0	
0	0	0	0	0	511	513	1	839	37	0	
1	0	0	0	0	509	510	0	863	37	0	
2	0	0	0	0	509	511	0	879	37	0	
3	0	0	0	0	508	512	0	886	37	0	
4	0	0	0	0	508	511	1	895	37	0	
5	0	0	0	0	508	510	0	920	37	0	
6	0	0	0	0	514	512	0	951	37	0	
7	0	0	0	0	520	513	0	979	37	0	
8	0	0	0	0	510	512	1	1007	37	0	
9	0	0	0	0	507	513	0	1018	38	0	
10	0	0	0	0	508	513	0	1018	37	0	
11	0	0	0	0	512	513	0	1017	37	0	
12	0	0	0	0	510	511	1	1019	37	0	
13	0	0	0	0	512	510	0	1018	37	0	
14	0	0	0	0	511	512	0	1018	37	0	
15	0	0	0	0	513	513	0	940	37	0	
0	0	0	0	0	508	512	1	902	37	0	
1	0	0	0	0	506	509	0	891	37	0	
2	0	0	0	0	504	512	0	898	37	0	
3	0	0	0	0	508	513	0	913	37	0	
4	0	0	0	0	505	515	1	919	37	0	
5	0	0	0	0	511	512	0	928	37	0	
6	0	0	0	0	517	513	0	940	37	0	
7	0	0	0	0	512	515	0	960	37	0	
8	0	0	0	0	512	515	1	981	37	0	
9	0	0	0	0	503	513	0	1003	38	0	
10	0	0	0	0	508	513	0	1017	37	0	
11	0	0	0	0	505	513	0	1018	37	0	
12	0	0	0	0	504	513	1	1019	37	0	
13	0	0	0	0	519	512	0	1018	37	0	
14	0	0	0	0	517	511	0	1018	37	0	
15	0	0	0	0	514	512	0	1018	37	0	
0	0	0	0	0	511	512	1	1019	37	0	
1	0	0	0	0	505	511	0	1018	37	0	
2	0	0	0	0	514	512	0	1018	37	0	
3	0	0	0	0	506	513	0	1017	37	0	
4	0	0	0	0	517	514	0	981	37	0	
5	0	0	0	0	515	512	0	965	37	0	
6	0	0	0	0	514	513	0	948	37	0	
7	0	0	0	0	512	514	0	931	37	0	
8	0	0	0	0	511	513	0	911	37	0	
9	0	0	0	0	509	513	0	894	38	0	
10	0	0	0	0	516	512	0	877	37	0	
11	0	0	0	0	512	512	0	885	37	0	
12	0	0	0	0	511	510	0	867	37	0	
13	0	0	0	0	504	509	0	871	37	0	
14	0	0	0	0	507	510	0	878	37	0	
15	0	0	0	0	506	512	0	892	37	0	
0	0	0	0	0	510	512	1	919	37	0	
1	0	0	0	0	509	513	0	957	37	0	
2	0	0	0	0	511	513	0	997	37	0	
3	0	0	0	0	511	512	0	1017	37	0	
4	0	0	0	0	511	513	1	1019	37	0	
5	0	0	0	0	508	512	0	1018	37	0	
6	0	0	0	0	516	513	0	1018	37	0	
7	0	0	0	0	507	514	0	1018	37	0	
8	0	0	0	0	512	514	1	1019	37	0	
9	0	0	0	0	508	513	0	1018	37	0	
10	0	0	0	0	512	514	0	1018	37	0	
11	0	0	0	0	512	515	0	1018	37	0	
12	0	0	0	0	513	514	1	1019	37	0	
13	0	0	0	0	520	515	0	1018	37	0	
14	0	0	0	0	503	514	0	1018	37	0	
15	0	0	0	0	507	515	0	976	37	0	
0	0	0	0	0	510	513	1	923	37	0	
1	0	0	0	0	510	512	0	894	37	0	
2	0	0	0	0	516	512	0	877	37	0	
3	0	0	0	0	511	509	0	867	37	0	
4	0	0	0	0	504	508	1	850	37	0	
5	0	0	0	0	509	506	0	837	37	0	
6	0	0	0	0	517	507	0	819	37	0	
7	0	0	0	0	510	508	0	805	37	0	
8	0	0	0	0	513	510	1	803	37	0	
9	0	0	0	0	505	509	0	815	38	0	
10	0	0	0	0	511	510	0	833	37	0	
11	0	0	0	0	504	511	0	844	37	0	
12	0	0	0	0	520	511	1	856	38	0	
13	0	0	0	0	514	510	0	868	37	0	
14	0	0	0	0	508	511	0	892	37	0	
15	0	0	0	0	508	512	0	903	37	0	
0	0	0	0	0	514	512	0	914	37	0	
1	0	0	0	0	510	512	0	915	38	0	
2	0	0	0	0	514	512	0	915	37	0	
3	0	0	0	0	511	513	0	914	37	0	
4	0	0	0	0	510	513	0	904	37	0	
5	0	0	0	0	510	513	0	888	37	0	
6	0	0	0	0	503	512	0	873	37	0	
7	0	0	0	0	511	513	0	875	37	0	
8	0	0	0	0	506	512	1	908	37	0	
9	0	0	0	0	511	511	0	910	38	0	
10	0	0	0	0	509	511	0	939	37	0	
11	0	0	0	0	516	511	0	971	37	0	
12	0	0	0	0	504	510	1	1006	37	0	
13	0	0	0	0	503	510	0	1018	37	0	
14	0	0	0	0	517	511	0	1018	37	0	
15	0	0	0	0	508	510	0	1018	37	0	
0	0	0	0	0	510	511	1	1019	37	0	
1	0	0	0	0	512	510	0	1018	38	0	
2	0	0	0	0	513	512	0	1018	37	0	
3	0	0	0	0	512	514	0	1018	37	0	
4	0	0	0	0	516	513	1	1019	37	0	
5	0	0	0	0	508	512	0	1018	37	0	
6	0	0	0	0	505	510	0	1018	37	0	
7	0	0	0	0	511	510	0	974	37	0	
8	0	0	0	0	505	510	0	945	37	0	
9	0	0	0	0	508	510	0	927	37	0	
10	0	0	0	0	519	512	0	915	37	0	
11	0	0	0	0	508	511	0	898	37	0	
12	0	0	0	0	505	512	1	883	37	0	
13	0	0	0	0	508	511	0	875	37	0	
14	0	0	0	0	508	511	0	862	37	0	
15	0	0	0	0	510	512	0	844	37	0	
0	0	0	0	0	512	513	1	832	37	0	
1	0	0	0	0	509	513	0	830	37	0	
2	0	0	0	0	506	514	0	830	37	0	
3	0	0	0	0	513	514	0	832	37	0	
4	0	0	0	0	509	513	1	831	37	0	
5	0	0	0	0	511	513	0	828	37	0	
6	0	0	0	0	509	512	0	824	37	0	
7	0	0	0	0	509	515	0	822	37	0	
8	0	0	0	0	508	515	1	827	37	0	
9	0	0	0	0	507	514	0	843	38	0	
10	0	0	0	0	509	512	0	856	37	0	
11	0	0	0	0	503	514	0	868	37	0	
12	0	0	0	0	513	515	1	881	37	0	
13	0	0	0	0	512	513	0	897	37	0	
14	0	0	0	0	511	515	0	909	37	0	
15	0	0	0	0	508	513	0	934	37	0	
0	0	0	0	0	505	512	1	970	37	0	
1	0	0	0	0	505	513	0	998	38	0	
2	0	0	0	0	513	515	0	1006	37	0	
3	0	0	0	0	514	515	0	1001	37	0	
4	0	0	0	0	515	514	1	990	37	0	
5	0	0	0	0	505	513	0	979	37	0	
6	0	0	0	0	518	513	0	963	37	0	
7	0	0	0	0	519	514	0	954	37	0	
8	0	0	0	0	512	515	1	951	37	0	
9	0	0	0	0	508	514	0	952	37	0	
10	0	0	0	0	509	513	0	943	37	0	
11	0	0	0	0	506	513	0	935	37	0	
12	0	0	0	0	506	512	1	927	37	0	
13	0	0	0	0	506	511	0	918	37	0	
14	0	0	0	0	512	512	0	910	37	0	
15	0	0	0	0	512	513	0	907	37	0	
0	0	0	0	0	511	514	1	908	37	0	
1	0	0	0	0	511	512	0	906	37	0	
2	0	0	0	0	509	511	0	893	37	0	
3	0	0	0	0	511	512	0	865	37	0	
4	0	0	0	0	517	513	1	843	37	0	
5	0	0	0	0	512	512	0	826	37	0	
6	0	0	0	0	509	515	0	808	37	0	
7	0	0	0	0	514	515	0	796	37	0	
8	0	0	0	0	512	515	1	793	37	0	
9	0	0	0	0	514	515	0	805	37	0	
10	0	0	0	0	507	514	0	833	37	0	
11	0	0	0	0	506	514	0	864	37	0	
12	0	0	0	0	500	512	0	898	37	0	
13	0	0	0	0	515	512	0	926	37	0	
14	0	0	0	0	508	512	0	951	37	0	
15	0	0	0	0	503	512	0	968	37	0	
0	0	0	0	0	519	512	1	968	37	0	
1	0	0	0	0	511	510	0	958	37	0	
2	0	0	0	0	510	510	0	936	37	0	
3	0	0	0	0	508	512	0	910	37	0	
4	0	0	0	0	516	513	1	883	37	0	
5	0	0	0	0	518	511	0	855	37	0	
6	0	0	0	0	510	510	0	819	37	0	
7	0	0	0	0	513	511	0	799	37	0	
8	0	0	0	0	513	513	1	784	37	0	
9	0	0	0	0	511	514	0	779	38	0	
10	0	0	0	0	508	513	0	774	37	0	
11	0	0	0	0	501	511	0	773	37	0	
12	0	0	0	0	509	510	1	774	37	0	
13	0	0	0	0	505	507	0	778	37	0	
14	0	0	0	0	508	508	0	791	37	0	
15	0	0	0	0	514	509	0	804	37	0	
0	0	0	0	0	505	510	0	816	37	0	
1	0	0	0	0	510	510	0	833	38	0	
2	0	0	0	0	510	513	0	850	37	0	
3	0	0	0	0	509	515	0	856	37	0	
4	0	0	0	0	518	513	1	852	37	0	
5	0	0	0	0	514	513	0	845	37	0	
6	0	0	0	0	509	514	0	837	37	0	
7	0	0	0	0	509	514	0	831	37	0	
8	0	0	0	0	514	511	0	831	37	0	
9	0	0	0	0	509	510	0	830	37	0	
10	0	0	0	0	505	510	0	829	37	0	
11	0	0	0	0	516	512	0	833	37	0	
12	0	0	0	0	508	514	1	840	37	0	
13	0	0	0	0	517	513	0	848	37	0	
14	0	0	0	0	513	512	0	854	37	0	
15	0	0	0	0	513	514	0	866	37	0	
0	0	0	0	0	512	514	1	876	37	0	
1	0	0	0	0	506	512	0	886	37	0	
2	0	0	0	0	514	512	0	903	37	0	
3	0	0	0	0	512	514	0	934	37	0	
4	0	0	0	0	507	515	1	959	37	0	
5	0	0	0	0	506	515	0	968	37	0	
6	0	0	0	0	515	515	0	962	37	0	
7	0	0	0	0	506	515	0	942	37	0	
8	0	0	0	0	512	515	1	914	37	0	
9	0	0	0	0	510	514	0	889	37	0	
10	0	0	0	0	512	515	0	860	37	0	
11	0	0	0	0	507	514	0	838	37	0	
12	0	0	0	0	506	515	1	817	37	0	
13	0	0	0	0	507	513	0	796	37	0	
14	0	0	0	0	507	513	0	785	37	0	
15	0	0	0	0	511	515	0	781	37	0	
0	0	0	0	0	513	515	1	775	37	0	
1	0	0	0	0	510	515	0	773	38	0	
2	0	0	0	0	512	515	0	769	37	0	
3	0	0	0	0	506	515	0	775	37	0	
4	0	0	0	0	508	515	1	748	37	0	
5	0	0	0	0	512	514	0	743	37	0	
6	0	0	0	0	511	515	0	745	37	0	
7	0	0	0	0	514	516	0	750	37	0	
8	0	0	0	0	517	515	0	755	37	0	
9	0	0	0	0	506	514	0	763	38	0	
10	0	0	0	0	509	512	0	774	37	0	
11	0	0	0	0	508	511	0	776	37	0	
12	0	0	0	0	506	511	1	775	37	0	
13	0	0	0	0	518	509	0	780	37	0	
14	0	0	0	0	510	510	0	779	37	0	
15	0	0	0	0	504	513	0	770	37	0	
0	0	0	0	0	508	512	0	761	37	0	
1	0	0	0	0	509	512	0	762	37	0	
2	0	0	0	0	510	514	0	768	37	0	
3	0	0	0	0	508	513	0	779	37	0	
4	0	0	0	0	510	510	1	784	37	0	
5	0	0	0	0	508	509	0	785	37	0	
6	0	0	0	0	514	511	0	790	37	0	
7	0	0	0	0	501	512	0	794	37	0	
8	0	0	0	0	507	511	1	790	37	0	
9	0	0	0	0	509	511	0	777	38	0	
10	0	0	0	0	506	511	0	770	37	0	
11	0	0	0	0	508	512	0	768	37	0	
12	0	0	0	0	508	513	1	776	37	0	
13	0	0	0	0	504	512	0	801	37	0	
14	0	0	0	0	511	511	0	837	37	0	
15	0	0	0	0	514	512	0	874	37	0	
0	0	0	0	0	515	515	1	902	37	0	
1	0	0	0	0	510	512	0	928	38	0	
2	0	0	0	0	506	512	0	944	37	0	
3	0	0	0	0	511	512	0	947	37	0	
4	0	0	0	0	512	511	1	940	37	0	
5	0	0	0	0	512	508	0	932	37	0	
6	0	0	0	0	510	509	0	918	37	0	
7	0	0	0	0	512	511	0	912	37	0	
8	0	0	0	0	508	509	1	906	37	0	
9	0	0	0	0	510	510	0	892	37	0	
10	0	0	0	0	507	508	0	871	37	0	
11	0	0	0	0	514	511	0	854	37	0	
12	0	0	0	0	517	512	1	831	37	0	
13	0	0	0	0	510	510	0	807	37	0	
14	0	0	0	0	513	510	0	778	37	0	
15	0	0	0	0	513	512	0	759	37	0	
0	0	0	0	0	508	512	1	742	37	0	
1	0	0	0	0	510	512	0	732	38	0	
2	0	0	0	0	506	513	0	724	37	0	
3	0	0	0	0	508	514	0	713	37	0	
4	0	0	0	0	504	515	1	703	37	0	
5	0	0	0	0	506	513	0	691	37	0	
6	0	0	0	0	512	513	0	681	37	0	
7	0	0	0	0	513	513	0	676	37	0	
8	0	0	0	0	508	514	0	679	37	0	
9	0	0	0	0	510	514	0	688	38	0	
10	0	0	0	0	515	515	0	698	37	0	
11	0	0	0	0	509	515	0	707	37	0	
12	0	0	0	0	512	514	1	713	37	0	
13	0	0	0	0	512	513	0	723	37	0	
14	0	0	0	0	507	514	0	728	37	0	
15	0	0	0	0	515	513	0	725	37	0	
0	0	0	0	0	517	512	0	736	37	0	
1	0	0	0	0	511	511	0	750	37	0	
2	0	0	0	0	511	512	0	755	37	0	
3	0	0	0	0	513	514	0	744	37	0	
4	0	0	0	0	505	513	1	731	37	0	
5	0	0	0	0	507	512	0	724	37	0	
6	0	0	0	0	509	514	0	729	37	0	
7	0	0	0	0	511	515	0	737	37	0	
8	0	0	0	0	507	515	1	743	37	0	
9	0	0	0	0	518	513	0	705	37	0	
10	0	0	0	0	504	513	0	678	37	0	
11	0	0	0	0	507	512	0	664	37	0	
12	0	0	0	0	515	511	1	665	37	0	
13	0	0	0	0	504	510	0	678	37	0	
14	0	0	0	0	510	512	0	701	37	0	
15	0	0	0	0	511	511	0	724	37	0	
0	0	0	0	0	506	509	1	750	37	0	
1	0	0	0	0	515	510	0	756	38	0	
2	0	0	0	0	506	511	0	775	37	0	
3	0	0	0	0	508	512	0	804	37	0	
4	0	0	0	0	507	510	1	824	37	0	
5	0	0	0	0	510	511	0	833	37	0	
6	0	0	0	0	512	512	0	836	37	0	
7	0	0	0	0	515	510	0	834	37	0	
8	0	0	0	0	514	512	1	828	37	0	
9	0	0	0	0	508	512	0	819	38	0	
10	0	0	0	0	512	513	0	803	37	0	
11	0	0	0	0	511	514	0	791	37	0	
12	0	0	0	0	510	512	1	783	37	0	
13	0	0	0	0	512	511	0	778	37	0	
14	0	0	0	0	516	512	0	771	37	0	
15	0	0	0	0	510	512	0	746	37	0	
0	0	0	0	0	512	511	0	724	37	0	
1	0	0	0	0	508	511	0	709	38	0	
2	0	0	0	0	510	512	0	696	37	0	
3	0	0	0	0	510	513	0	685	37	0	
4	0	0	0	0	508	514	0	687	37	0	
5	0	0	0	0	516	514	0	696	37	0	
6	0	0	0	0	514	513	0	704	37	0	
7	0	0	0	0	507	515	0	705	37	0	
8	0	0	0	0	512	514	1	705	37	0	
9	0	0	0	0	504	513	0	711	37	0	
10	0	0	0	0	507	515	0	719	37	0	
11	0	0	0	0	509	514	0	732	37	0	
12	0	0	0	0	511	514	1	752	37	0	
13	0	0	0	0	514	513	0	771	37	0	
14	0	0	0	0	505	515	0	776	37	0	
15	0	0	0	0	512	516	0	764	37	0	
0	0	0	0	0	510	514	1	752	37	0	
1	0	0	0	0	505	512	0	755	38	0	
2	0	0	0	0	508	510	0	761	37	0	
3	0	0	0	0	511	510	0	769	37	0	
4	0	0	0	0	515	510	1	769	37	0	
5	0	0	0	0	508	508	0	761	37	0	
6	0	0	0	0	508	510	0	750	37	0	
7	0	0	0	0	504	511	0	743	37	0	
8	0	0	0	0	510	511	1	736	37	0	
9	0	0	0	0	513	510	0	736	38	0	
10	0	0	0	0	517	511	0	733	37	0	
11	0	0	0	0	505	510	0	731	37	0	
12	0	0	0	0	504	508	1	739	37	0	
13	0	0	0	0	506	507	0	761	37	0	
14	0	0	0	0	519	509	0	790	37	0	
15	0	0	0	0	509	509	0	812	37	0	
0	0	0	0	0	512	509	0	820	37	0	
1	0	0	0	0	506	509	0	819	37	0	
2	0	0	0	0	512	510	0	817	37	0	
3	0	0	0	0	505	510	0	815	37	0	
4	0	0	0	0	515	510	1	811	37	0	
5	0	0	0	0	513	510	0	790	37	0	
6	0	0	0	0	513	510	0	765	37	0	
7	0	0	0	0	508	511	0	726	37	0	
8	0	0	0	0	510	511	1	683	37	0	
9	0	0	0	0	512	511	0	650	38	0	
10	0	0	0	0	513	511	0	624	37	0	
11	0	0	0	0	512	511	0	606	37	0	
12	0	0	0	0	508	511	0	601	37	0	
13	0	0	0	0	506	512	0	614	37	0	
14	0	0	0	0	505	512	0	638	37	0	
15	0	0	0	0	509	512	0	667	37	0	
0	0	0	0	0	512	513	1	691	37	0	
1	0	0	0	0	513	513	0	698	38	0	
2	0	0	0	0	503	513	0	702	37	0	
3	0	0	0	0	507	512	0	702	37	0	
4	0	0	0	0	515	513	1	703	37	0	
5	0	0	0	0	512	512	0	711	37	0	
6	0	0	0	0	512	512	0	721	37	0	
7	0	0	0	0	511	513	0	730	37	0	
8	0	0	0	0	510	516	1	741	37	0	
9	0	0	0	0	509	514	0	750	38	0	
10	0	0	0	0	510	513	0	758	37	0	
11	0	0	0	0	508	515	0	771	37	0	
12	0	0	0	0	506	514	1	783	37	0	
13	0	0	0	0	515	509	0	798	37	0	
14	0	0	0	0	508	509	0	801	37	0	
15	0	0	0	0	513	511	0	803	37	0	
0	0	0	0	0	508	509	1	806	37	0	
1	0	0	0	0	505	509	0	810	38	0	
2	0	0	0	0	511	507	0	817	37	0	
3	0	0	0	0	511	509	0	827	37	0	
4	0	0	0	0	507	511	1	823	37	0	
5	0	0	0	0	509	512	0	812	37	0	
6	0	0	0	0	513	513	0	797	37	0	
7	0	0	0	0	506	516	0	780	37	0	
8	0	0	0	0	507	514	1	762	37	0	
9	0	0	0	0	519	514	0	737	38	0	
10	0	0	0	0	513	513	0	705	37	0	
11	0	0	0	0	511	513	0	670	37	0	
12	0	0	0	0	516	513	1	646	37	0	
13	0	0	0	0	512	512	0	645	37	0	
14	0	0	0	0	505	511	0	646	37	0	
15	0	0	0	0	502	511	0	639	37	0	
0	0	0	0	0	504	512	0	621	37	0	
1	0	0	0	0	513	511	0	617	38	0	
2	0	0	0	0	516	511	0	625	37	0	
3	0	0	0	0	512	512	0	642	37	0	
4	0	0	0	0	513	513	1	664	37	0	
5	0	0	0	0	510	512	0	684	37	0	
6	0	0	0	0	512	512	0	704	37	0	
7	0	0	0	0	512	513	0	722	37	0	
8	0	0	0	0	512	513	1	727	37	0	
9	0	0	0	0	512	512	0	719	37	0	
10	0	0	0	0	507	511	0	709	37	0	
11	0	0	0	0	508	512	0	696	37	0	
12	0	0	0	0	515	512	0	688	37	0	
13	0	0	0	0	511	509	0	683	37	0	
14	0	0	0	0	509	512	0	676	37	0	
15	0	0	0	0	514	513	0	679	37	0	
0	0	0	0	0	505	512	0	662	37	0	
1	0	0	0	0	510	512	0	647	37	0	
2	0	0	0	0	508	512	0	630	37	0	
3	0	0	0	0	511	513	0	615	37	0	
4	0	0	0	0	508	512	1	593	37	0	
5	0	0	0	0	507	510	0	573	37	0	
6	0	0	0	0	511	510	0	561	37	0	
7	0	0	0	0	508	511	0	559	37	0	
8	0	0	0	0	515	510	1	566	37	0	
9	0	0	0	0	511	511	0	571	38	0	
10	0	0	0	0	510	510	0	575	37	0	
11	0	0	0	0	504	511	0	589	37	0	
12	0	0	0	0	510	511	1	612	37	0	
13	0	0	0	0	514	510	0	619	37	0	
14	0	0	0	0	513	511	0	640	37	0	
15	0	0	0	0	510	511	0	659	37	0	
0	0	0	0	0	510	511	1	673	37	0	
1	0	0	0	0	512	511	0	691	37	0	
2	0	0	0	0	518	511	0	710	37	0	
3	0	0	0	0	505	512	0	726	37	0	
4	0	0	0	0	515	512	1	726	37	0	
5	0	0	0	0	514	510	0	718	37	0	
6	0	0	0	0	506	510	0	707	37	0	
7	0	0	0	0	507	510	0	704	37	0	
8	0	0	0	0	512	511	1	696	37	0	
9	0	0	0	0	510	511	0	688	38	0	
10	0	0	0	0	514	510	0	687	37	0	
11	0	0	0	0	514	511	0	684	37	0	
12	0	0	0	0	504	510	1	682	37	0	
13	0	0	0	0	511	509	0	678	37	0	
14	0	0	0	0	508	511	0	680	37	0	
15	0	0	0	0	508	512	0	692	37	0	
0	0	0	0	0	511	511	0	704	37	0	
1	0	0	0	0	510	512	0	713	37	0	
2	0	0	0	0	513	512	0	721	37	0	
3	0	0	0	0	504	513	0	716	37	0	
4	0	0	0	0	506	513	1	704	37	0	
5	0	0	0	0	504	515	0	691	37	0	
6	0	0	0	0	507	514	0	680	37	0	
7	0	0	0	0	516	515	0	678	37	0	
8	0	0	0	0	511	512	1	688	37	0	
9	0	0	0	0	512	511	0	712	38	0	
10	0	0	0	0	509	511	0	737	37	0	
11	0	0	0	0	511	511	0	754	37	0	
12	0	0	0	0	509	512	1	761	37	0	
13	0	0	0	0	504	510	0	764	37	0	
14	0	0	0	0	510	511	0	764	37	0	
15	0	0	0	0	509	511	0	750	37	0	
0	0	0	0	0	511	511	1	724	37	0	
1	0	0	0	0	510	511	0	705	38	0	
2	0	0	0	0	509	510	0	674	37	0	
3	0	0	0	0	512	511	0	652	37	0	
4	0	0	0	0	521	510	0	622	37	0	
5	0	0	0	0	507	510	0	596	37	0	
6	0	0	0	0	508	511	0	578	37	0	
7	0	0	0	0	505	512	0	568	37	0	
8	0	0	0	0	511	511	1	559	37	0	
9	0	0	0	0	509	510	0	562	38	0	
10	0	0	0	0	503	511	0	577	37	0	
11	0	0	0	0	518	511	0	608	37	0	
12	0	0	0	0	511	510	0	643	37	0	
13	0	0	0	0	504	511	0	672	37	0	
14	0	0	0	0	510	512	0	692	37	0	
15	0	0	0	0	509	513	0	700	37	0	
0	0	0	0	0	513	512	0	691	37	0	
1	0	0	0	0	505	512	0	680	38	0	
2	0	0	0	0	513	512	0	676	37	0	
3	0	0	0	0	515	512	0	659	37	0	
4	0	0	0	0	516	511	0	649	37	0	
5	0	0	0	0	507	510	0	647	37	0	
6	0	0	0	0	516	512	0	641	37	0	
7	0	0	0	0	512	513	0	619	37	0	
8	0	0	0	0	506	514	1	592	37	0	
9	0	0	0	0	511	515	0	568	38	0	
10	0	0	0	0	510	515	0	547	37	0	
11	0	0	0	0	508	515	0	537	37	0	
12	0	0	0	0	512	513	0	536	37	0	
13	0	0	0	0	516	514	0	543	37	0	
14	0	0	0	0	508	515	0	540	37	0	
15	0	0	0	0	507	514	0	539	37	0	
0	0	0	0	0	511	513	1	551	37	0	
1	0	0	0	0	505	510	0	571	38	0	
2	0	0	0	0	510	511	0	589	37	0	
3	0	0	0	0	514	513	0	606	37	0	
4	0	0	0	0	517	513	1	623	37	0	
5	0	0	0	0	512	513	0	656	37	0	
6	0	0	0	0	515	513	0	696	37	0	
7	0	0	0	0	503	515	0	729	37	0	
8	0	0	0	0	507	514	0	748	37	0	
9	0	0	0	0	507	513	0	743	38	0	
10	0	0	0	0	519	515	0	725	37	0	
11	0	0	0	0	508	513	0	694	37	0	
12	0	0	0	0	512	512	0	649	37	0	
13	0	0	0	0	506	512	0	600	37	0	
14	0	0	0	0	505	515	0	554	37	0	
15	0	0	0	0	511	515	0	509	37	0	
0	0	0	0	0	509	512	0	470	37	0	
1	0	0	0	0	515	512	0	447	37	0	
2	0	0	0	0	510	513	0	432	37	0	
3	0	0	0	0	509	512	0	439	37	0	
4	0	0	0	0	511	511	0	458	37	0	
5	0	0	0	0	509	512	0	482	37	0	
6	0	0	0	0	513	512	0	503	37	0	
7	0	0	0	0	514	513	0	523	37	0	
8	0	0	0	0	517	512	0	541	37	0	
9	0	0	0	0	515	514	0	544	38	0	
10	0	0	0	0	507	512	0	544	37	0	
11	0	0	0	0	507	513	0	553	37	0	
12	0	0	0	0	503	515	1	558	37	0	
13	0	0	0	0	509	513	0	562	37	0	
14	0	0	0	0	510	514	0	564	37	0	
15	0	0	0	0	517	515	0	558	37	0	
0	0	0	0	0	511	515	1	546	37	0	
1	0	0	0	0	515	514	0	534	38	0	
2	0	0	0	0	512	513	0	529	37	0	
3	0	0	0	0	503	514	0	530	37	0	
4	0	0	0	0	512	512	0	526	37	0	
5	0	0	0	0	502	512	0	515	37	0	
6	0	0	0	0	516	514	0	506	37	0	
7	0	0	0	0	505	515	0	499	37	0	
8	0	0	0	0	504	515	1	503	37	0	
9	0	0	0	0	511	514	0	509	38	0	
10	0	0	0	0	510	513	0	511	37	0	
11	0	0	0	0	515	514	0	513	37	0	
12	0	0	0	0	515	513	0	519	37	0	
13	0	0	0	0	509	515	0	528	37	0	
14	0	0	0	0	511	515	0	537	37	0	
15	0	0	0	0	509	516	0	534	37	0	
0	0	0	0	0	518	515	1	528	37	0	
1	0	0	0	0	514	512	0	531	38	0	
2	0	0	0	0	504	512	0	531	37	0	
3	0	0	0	0	511	512	0	534	37	0	
4	0	0	0	0	505	513	1	547	37	0	
5	0	0	0	0	512	511	0	561	37	0	
6	0	0	0	0	509	513	0	559	37	0	
7	0	0	0	0	510	514	0	546	37	0	
8	0	0	0	0	509	513	0	533	37	0	
9	0	0	0	0	508	513	0	529	38	0	
10	0	0	0	0	507	514	0	547	37	0	
11	0	0	0	0	512	515	0	573	37	0	
12	0	0	0	0	507	513	0	599	37	0	
13	0	0	0	0	511	513	0	623	37	0	
14	0	0	0	0	514	515	0	636	37	0	
15	0	0	0	0	513	516	0	644	37	0	
0	0	0	0	0	517	515	0	663	37	0	
1	0	0	0	0	507	515	0	650	37	0	
2	0	0	0	0	509	516	0	642	37	0	
3	0	0	0	0	511	515	0	630	37	0	
4	0	0	0	0	511	517	1	612	37	0	
5	0	0	0	0	511	514	0	587	37	0	
6	0	0	0	0	512	514	0	570	37	0	
7	0	0	0	0	512	514	0	555	37	0	
8	0	0	0	0	516	514	0	547	37	0	
9	0	0	0	0	502	512	0	543	38	0	
10	0	0	0	0	510	513	0	537	37	0	
11	0	0	0	0	508	513	0	531	37	0	
12	0	0	0	0	514	512	1	518	37	0	
13	0	0	0	0	512	512	0	500	37	0	
14	0	0	0	0	512	509	0	486	37	0	
15	0	0	0	0	505	509	0	486	37	0	
0	0	0	0	0	511	510	0	496	37	0	
1	0	0	0	0	507	511	0	517	38	0	
2	0	0	0	0	514	511	0	527	37	0	
3	0	0	0	0	508	513	0	541	37	0	
4	0	0	0	0	510	512	0	547	37	0	
5	0	0	0	0	514	511	0	555	37	0	
6	0	0	0	0	513	512	0	582	37	0	
7	0	0	0	0	514	512	0	621	37	0	
8	0	0	0	0	500	512	1	666	37	0	
9	0	0	0	0	508	513	0	711	38	0	
10	0	0	0	0	510	512	0	753	37	0	
11	0	0	0	0	505	513	0	776	37	0	
12	0	0	0	0	516	513	1	778	37	0	
13	0	0	0	0	515	510	0	764	37	0	
14	0	0	0	0	504	511	0	731	37	0	
15	0	0	0	0	509	511	0	689	37	0	
0	0	0	0	0	513	509	0	642	37	0	
1	0	0	0	0	512	509	0	591	37	0	
2	0	0	0	0	514	509	0	537	37	0	
3	0	0	0	0	504	511	0	497	37	0	
4	0	0	0	0	505	512	1	481	37	0	
5	0	0	0	0	515	509	0	479	37	0	
6	0	0	0	0	515	509	0	484	37	0	
7	0	0	0	0	512	511	0	506	37	0	
8	0	0	0	0	509	509	0	526	37	0	
9	0	0	0	0	513	510	0	539	37	0	
10	0	0	0	0	508	512	0	540	37	0	
11	0	0	0	0	510	512	0	538	37	0	
12	0	0	0	0	508	511	1	545	37	0	
13	0	0	0	0	507	512	0	566	37	0	
14	0	0	0	0	510	513	0	586	37	0	
15	0	0	0	0	509	512	0	591	37	0	
0	0	0	0	0	514	514	1	579	37	0	
1	0	0	0	0	506	513	0	561	37	0	
2	0	0	0	0	511	512	0	536	37	0	
3	0	0	0	0	513	511	0	503	37	0	
4	0	0	0	0	517	510	1	466	37	0	
5	0	0	0	0	510	508	0	419	37	0	
6	0	0	0	0	509	508	0	382	37	0	
7	0	0	0	0	507	509	0	372	37	0	
8	0	0	0	0	502	508	0	374	37	0	
9	0	0	0	0	510	510	0	376	38	0	
10	0	0	0	0	515	511	0	372	37	0	
11	0	0	0	0	514	511	0	380	37	0	
12	0	0	0	0	511	510	0	406	37	0	
13	0	0	0	0	512	510	0	448	37	0	
14	0	0	0	0	518	511	0	505	37	0	
15	0	0	0	0	510	511	0	559	37	0	
0	0	0	0	0	508	512	0	610	37	0	
1	0	0	0	0	513	515	0	642	38	0	
2	0	0	0	0	513	515	0	663	37	0	
3	0	0	0	0	509	514	0	668	37	0	
4	0	0	0	0	513	513	1	663	37	0	
5	0	0	0	0	515	511	0	651	37	0	
6	0	0	0	0	499	511	0	635	37	0	
7	0	0	0	0	508	512	0	616	37	0	
8	0	0	0	0	512	510	0	593	37	0	
9	0	0	0	0	513	509	0	571	37	0	
10	0	0	0	0	503	510	0	550	37	0	
11	0	0	0	0	507	510	0	521	37	0	
12	0	0	0	0	509	510	0	493	37	0	
13	0	0	0	0	511	509	0	472	37	0	
14	0	0	0	0	510	508	0	453	37	0	
15	0	0	0	0	510	510	0	426	37	0	
0	0	0	0	0	506	509	0	395	37	0	
1	0	0	0	0	505	511	0	372	37	0	
2	0	0	0	0	512	511	0	356	37	0	
3	0	0	0	0	511	513	0	340	37	0	
4	0	0	0	0	513	514	0	336	37	0	
5	0	0	0	0	518	515	0	339	37	0	
6	0	0	0	0	508	512	0	350	37	0	
7	0	0	0	0	515	515	0	378	37	0	
8	0	0	0	0	516	514	0	411	37	0	
9	0	0	0	0	506	513	0	445	37	0	
10	0	0	0	0	512	515	0	475	37	0	
11	0	0	0	0	512	515	0	509	37	0	
12	0	0	0	0	515	514	1	533	37	0	
13	0	0	0	0	506	514	0	543	37	0	
14	0	0	0	0	509	513	0	542	37	0	
15	0	0	0	0	508	513	0	538	37	0	
0	0	0	0	0	506	513	1	546	37	0	
1	0	0	0	0	510	512	0	584	37	0	
2	0	0	0	0	511	511	0	633	37	0	
3	0	0	0	0	511	510	0	670	37	0	
4	0	0	0	0	518	511	1	690	37	0	
5	0	0	0	0	514	510	0	697	37	0	
6	0	0	0	0	515	511	0	695	37	0	
7	0	0	0	0	509	513	0	679	37	0	
8	0	0	0	0	502	514	1	655	37	0	
9	0	0	0	0	508	512	0	630	38	0	
10	0	0	0	0	509	512	0	616	37	0	
11	0	0	0	0	510	512	0	601	37	0	
12	0	0	0	0	509	514	0	576	37	0	
13	0	0	0	0	508	513	0	554	37	0	
14	0	0	0	0	504	513	0	538	37	0	
15	0	0	0	0	512	513	0	530	37	0	
0	0	0	0	0	514	513	1	525	37	0	
1	0	0	0	0	512	512	0	528	37	0	
2	0	0	0	0	516	513	0	540	37	0	
3	0	0	0	0	512	515	0	556	37	0	
4	0	0	0	0	515	513	0	572	37	0	
5	0	0	0	0	507	512	0	578	37	0	
6	0	0	0	0	513	513	0	577	37	0	
7	0	0	0	0	505	514	0	563	37	0	
8	0	0	0	0	508	513	0	545	37	0	
9	0	0	0	0	510	512	0	529	37	0	
10	0	0	0	0	505	513	0	520	37	0	
11	0	0	0	0	510	514	0	512	37	0	
12	0	0	0	0	511	514	1	505	37	0	
13	0	0	0	0	510	512	0	494	37	0	
14	0	0	0	0	518	511	0	477	37	0	
15	0	0	0	0	511	512	0	457	37	0	
0	0	0	0	0	505	513	1	439	37	0	
1	0	0	0	0	504	513	0	441	37	0	
2	0	0	0	0	514	514	0	454	37	0	
3	0	0	0	0	508	516	0	472	37	0	
4	0	0	0	0	515	516	1	500	37	0	
5	0	0	0	0	510	514	0	527	37	0	
6	0	0	0	0	513	514	0	544	37	0	
7	0	0	0	0	517	514	0	553	37	0	
8	0	0	0	0	517	514	0	559	37	0	
9	0	0	0	0	511	512	0	563	38	0	
10	0	0	0	0	509	511	0	579	37	0	
11	0	0	0	0	507	510	0	589	37	0	
12	0	0	0	0	511	510	0	587	37	0	
13	0	0	0	0	511	512	0	575	37	0	
14	0	0	0	0	508	513	0	555	37	0	
15	0	0	0	0	506	514	0	534	37	0	
0	0	0	0	0	510	515	1	525	37	0	
1	0	0	0	0	518	511	0	525	38	0	
2	0	0	0	0	513	512	0	534	37	0	
3	0	0	0	0	504	512	0	537	37	0	
4	0	0	0	0	505	512	0	539	37	0	
5	0	0	0	0	511	512	0	545	37	0	
6	0	0	0	0	512	511	0	556	37	0	
7	0	0	0	0	504	512	0	575	37	0	
8	0	0	0	0	510	510	0	599	37	0	
9	0	0	0	0	518	510	0	614	37	0	
10	0	0	0	0	505	510	0	622	37	0	
11	0	0	0	0	507	511	0	635	37	0	
12	0	0	0	0	518	512	1	616	37	0	
13	0	0	0	0	510	511	0	604	37	0	
14	0	0	0	0	511	511	0	587	37	0	
15	0	0	0	0	508	512	0	572	37	0	
0	0	0	0	0	510	511	0	559	37	0	
1	0	0	0	0	512	512	0	561	38	0	
2	0	0	0	0	509	512	0	573	37	0	
3	0	0	0	0	514	513	0	582	37	0	
4	0	0	0	0	504	513	1	592	37	0	
5	0	0	0	0	513	512	0	604	37	0	
6	0	0	0	0	510	513	0	611	37	0	
7	0	0	0	0	505	513	0	611	37	0	
8	0	0	0	0	509	514	1	599	37	0	
9	0	0	0	0	505	514	0	584	37	0	
10	0	0	0	0	508	513	0	568	37	0	
11	0	0	0	0	513	513	0	557	37	0	
12	0	0	0	0	516	513	0	546	37	0	
13	0	0	0	0	508	512	0	522	37	0	
14	0	0	0	0	513	511	0	501	37	0	
15	0	0	0	0	512	514	0	474	37	0	
0	0	0	0	0	515	515	1	448	37	0	
1	0	0	0	0	510	513	0	436	37	0	
2	0	0	0	0	508	512	0	435	37	0	
3	0	0	0	0	511	513	0	443	37	0	
4	0	0	0	0	515	512	0	450	37	0	
5	0	0	0	0	511	511	0	449	37	0	
6	0	0	0	0	510	511	0	444	37	0	
7	0	0	0	0	511	513	0	442	37	0	
8	0	0	0	0	505	514	0	444	37	0	
9	0	0	0	0	503	514	0	448	38	0	
10	0	0	0	0	510	516	0	441	37	0	
11	0	0	0	0	511	518	0	438	37	0	
12	0	0	0	0	508	515	0	445	37	0	
13	0	0	0	0	512	514	0	474	37	0	
14	0	0	0	0	515	513	0	516	37	0	
15	0	0	0	0	504	514	0	547	37	0	
0	0	0	0	0	511	513	1	560	37	0	
1	0	0	0	0	510	513	0	560	37	0	
2	0	0	0	0	510	513	0	558	37	0	
3	0	0	0	0	512	512	0	558	37	0	
4	0	0	0	0	510	512	1	553	37	0	
5	0	0	0	0	506	510	0	553	37	0	
6	0	0	0	0	514	511	0	562	37	0	
7	0	0	0	0	510	512	0	577	37	0	
8	0	0	0	0	515	513	1	587	37	0	
9	0	0	0	0	509	512	0	602	37	0	
10	0	0	0	0	509	513	0	622	37	0	
11	0	0	0	0	512	511	0	642	37	0	
12	0	0	0	0	507	513	1	641	37	0	
13	0	0	0	0	512	512	0	629	37	0	
14	0	0	0	0	511	513	0	603	37	0	
15	0	0	0	0	506	515	0	585	37	0	
0	0	0	0	0	510	515	1	571	37	0	
1	0	0	0	0	513	515	0	558	37	0	
2	0	0	0	0	514	515	0	537	37	0	
3	0	0	0	0	505	515	0	512	37	0	
4	0	0	0	0	510	515	1	474	37	0	
5	0	0	0	0	513	513	0	447	37	0	
6	0	0	0	0	507	514	0	428	37	0	
7	0	0	0	0	510	514	0	410	37	0	
8	0	0	0	0	514	513	1	395	37	0	
9	0	0	0	0	511	511	0	384	38	0	
10	0	0	0	0	514	512	0	375	37	0	
11	0	0	0	0	508	512	0	380	37	0	
12	0	0	0	0	511	513	0	399	37	0	
13	0	0	0	0	505	512	0	415	37	0	
14	0	0	0	0	507	513	0	430	37	0	
15	0	0	0	0	506	513	0	426	37	0	
0	0	0	0	0	512	511	0	437	37	0	
1	0	0	0	0	512	512	0	444	38	0	
2	0	0	0	0	501	512	0	446	37	0	
3	0	0	0	0	511	513	0	457	37	0	
4	0	0	0	0	509	512	0	476	37	0	
5	0	0	0	0	514	513	0	493	37	0	
6	0	0	0	0	514	513	0	510	37	0	
7	0	0	0	0	514	512	0	528	37	0	
8	0	0	0	0	512	513	1	541	37	0	
9	0	0	0	0	512	510	0	547	38	0	
10	0	0	0	0	507	512	0	555	37	0	
11	0	0	0	0	514	512	0	574	37	0	
12	0	0	0	0	515	511	1	575	37	0	
13	0	0	0	0	511	510	0	583	37	0	
14	0	0	0	0	506	511	0	587	37	0	
15	0	0	0	0	511	512	0	590	37	0	
0	0	0	0	0	509	512	0	606	37	0	
1	0	0	0	0	506	510	0	617	38	0	
2	0	0	0	0	510	510	0	627	37	0	
3	0	0	0	0	514	510	0	626	37	0	
4	0	0	0	0	503	510	0	613	37	0	
5	0	0	0	0	512	511	0	607	37	0	
6	0	0	0	0	507	512	0	606	37	0	
7	0	0	0	0	509	513	0	604	37	0	
8	0	0	0	0	510	514	0	598	37	0	
9	0	0	0	0	509	516	0	584	37	0	
10	0	0	0	0	509	514	0	569	37	0	
11	0	0	0	0	513	514	0	559	37	0	
12	0	0	0	0	512	515	0	554	37	0	
13	0	0	0	0	507	515	0	549	37	0	
14	0	0	0	0	519	515	0	550	37	0	
15	0	0	0	0	515	515	0	559	37	0	
0	0	0	0	0	509	515	1	567	37	0	
1	0	0	0	0	509	515	0	574	38	0	
2	0	0	0	0	506	515	0	580	37	0	
3	0	0	0	0	509	515	0	604	37	0	
4	0	0	0	0	516	514	1	591	37	0	
5	0	0	0	0	516	512	0	588	37	0	
6	0	0	0	0	513	514	0	584	37	0	
7	0	0	0	0	510	512	0	576	37	0	
8	0	0	0	0	510	514	1	562	37	0	
9	0	0	0	0	509	511	0	543	37	0	
10	0	0	0	0	510	511	0	518	37	0	
11	0	0	0	0	510	511	0	492	37	0	
12	0	0	0	0	512	513	1	464	37	0	
13	0	0	0	0	511	512	0	444	37	0	
14	0	0	0	0	508	512	0	438	37	0	
15	0	0	0	0	508	513	0	441	37	0	
0	0	0	0	0	511	515	0	465	37	0	
1	0	0	0	0	504	514	0	498	37	0	
2	0	0	0	0	507	515	0	532	37	0	
3	0	0	0	0	503	515	0	556	37	0	
4	0	0	0	0	507	515	1	572	37	0	
5	0	0	0	0	513	511	0	582	37	0	
6	0	0	0	0	518	511	0	590	37	0	
7	0	0	0	0	508	511	0	592	37	0	
8	0	0	0	0	512	509	0	591	37	0	
9	0	0	0	0	508	511	0	589	37	0	
10	0	0	0	0	509	513	0	589	37	0	
11	0	0	0	0	516	514	0	590	37	0	
12	0	0	0	0	508	515	1	586	37	0	
13	0	0	0	0	514	510	0	580	37	0	
14	0	0	0	0	508	509	0	576	37	0	
15	0	0	0	0	512	509	0	573	37	0	
0	0	0	0	0	509	509	0	577	37	0	
1	0	0	0	0	504	511	0	581	37	0	
2	0	0	0	0	514	512	0	582	37	0	
3	0	0	0	0	509	513	0	584	37	0	
4	0	0	0	0	513	514	1	596	37	0	
5	0	0	0	0	509	511	0	612	37	0	
6	0	0	0	0	507	511	0	627	37	0	
7	0	0	0	0	511	511	0	634	37	0	
8	0	0	0	0	507	510	0	637	37	0	
9	0	0	0	0	512	511	0	640	38	0	
10	0	0	0	0	508	511	0	636	37	0	
11	0	0	0	0	506	513	0	622	37	0	
12	0	0	0	0	512	511	0	598	37	0	
13	0	0	0	0	512	512	0	579	37	0	
14	0	0	0	0	515	512	0	567	37	0	
15	0	0	0	0	512	513	0	556	37	0	
0	0	0	0	0	509	512	1	544	37	0	
1	0	0	0	0	514	512	0	532	38	0	
2	0	0	0	0	511	513	0	516	37	0	
3	0	0	0	0	510	513	0	492	37	0	
4	0	0	0	0	514	511	1	470	37	0	
5	0	0	0	0	511	511	0	456	37	0	
6	0	0	0	0	513	511	0	457	37	0	
7	0	0	0	0	511	512	0	464	37	0	
8	0	0	0	0	504	511	0	475	37	0	
9	0	0	0	0	509	511	0	488	38	0	
10	0	0	0	0	512	511	0	502	37	0	
11	0	0	0	0	512	510	0	523	37	0	
12	0	0	0	0	512	512	1	542	37	0	
13	0	0	0	0	510	512	0	567	37	0	
14	0	0	0	0	509	512	0	596	37	0	
15	0	0	0	0	512	513	0	633	37	0	
0	0	0	0	0	507	515	1	670	37	0	
1	0	0	0	0	505	515	0	705	37	0	
2	0	0	0	0	504	513	0	739	37	0	
3	0	0	0	0	516	512	0	760	37	0	
4	0	0	0	0	511	509	1	781	37	0	
5	0	0	0	0	505	509	0	790	37	0	
6	0	0	0	0	507	510	0	781	37	0	
7	0	0	0	0	509	511	0	760	37	0	
8	0	0	0	0	516	512	1	723	37	0	
9	0	0	0	0	508	510	0	690	37	0	
10	0	0	0	0	510	511	0	663	37	0	
11	0	0	0	0	510	511	0	640	37	0	
12	0	0	0	0	505	511	0	611	37	0	
13	0	0	0	0	513	512	0	591	37	0	
14	0	0	0	0	514	513	0	577	37	0	
15	0	0	0	0	516	514	0	572	37	0	
0	0	0	0	0	514	515	1	568	37	0	
1	0	0	0	0	509	512	0	567	38	0	
2	0	0	0	0	513	511	0	571	37	0	
3	0	0	0	0	502	513	0	581	37	0	
4	0	0	0	0	507	512	0	587	37	0	
5	0	0	0	0	505	510	0	587	37	0	
6	0	0	0	0	513	508	0	582	37	0	
7	0	0	0	0	510	511	0	572	37	0	
8	0	0	0	0	510	511	1	552	37	0	
9	0	0	0	0	510	508	0	541	38	0	
10	0	0	0	0	511	509	0	532	37	0	
11	0	0	0	0	512	511	0	535	37	0	
12	0	0	0	0	512	512	1	546	37	0	
13	0	0	0	0	511	511	0	566	37	0	
14	0	0	0	0	512	508	0	593	37	0	
15	0	0	0	0	512	511	0	615	37	0	
0	0	0	0	0	513	512	1	630	37	0	
1	0	0	0	0	515	510	0	632	37	0	
2	0	0	0	0	511	511	0	611	37	0	
3	0	0	0	0	510	511	0	587	37	0	
4	0	0	0	0	505	512	1	558	37	0	
5	0	0	0	0	511	511	0	536	37	0	
6	0	0	0	0	512	511	0	526	37	0	
7	0	0	0	0	512	512	0	528	37	0	
8	0	0	0	0	509	513	1	527	37	0	
9	0	0	0	0	511	511	0	525	38	0	
10	0	0	0	0	511	512	0	530	37	0	
11	0	0	0	0	510	513	0	518	37	0	
12	0	0	0	0	510	512	1	513	37	0	
13	0	0	0	0	508	511	0	514	37	0	
14	0	0	0	0	511	511	0	517	37	0	
15	0	0	0	0	506	510	0	518	37	0	
0	0	0	0	0	508	509	0	526	37	0	
1	0	0	0	0	508	510	0	547	37	0	
2	0	0	0	0	505	511	0	574	37	0	
3	0	0	0	0	516	512	0	593	37	0	
4	0	0	0	0	509	512	0	606	37	0	
5	0	0	0	0	506	512	0	609	37	0	
6	0	0	0	0	512	511	0	615	37	0	
7	0	0	0	0	511	512	0	616	37	0	
8	0	0	0	0	517	512	1	615	37	0	
9	0	0	0	0	514	511	0	619	38	0	
10	0	0	0	0	511	511	0	623	37	0	
11	0	0	0	0	509	512	0	624	37	0	
12	0	0	0	0	516	510	0	628	37	0	
13	0	0	0	0	510	510	0	629	37	0	
14	0	0	0	0	507	511	0	626	37	0	
15	0	0	0	0	508	513	0	623	37	0	
0	0	0	0	0	505	515	1	609	37	0	
1	0	0	0	0	508	514	0	592	38	0	
2	0	0	0	0	514	512	0	562	37	0	
3	0	0	0	0	505	511	0	535	37	0	
4	0	0	0	0	510	513	1	511	37	0	
5	0	0	0	0	508	512	0	494	37	0	
6	0	0	0	0	512	511	0	489	37	0	
7	0	0	0	0	509	512	0	491	37	0	
8	0	0	0	0	507	511	0	505	37	0	
9	0	0	0	0	516	512	0	526	38	0	
10	0	0	0	0	513	513	0	536	37	0	
11	0	0	0	0	509	512	0	535	37	0	
12	0	0	0	0	508	511	1	534	37	0	
13	0	0	0	0	511	510	0	547	37	0	
14	0	0	0	0	508	511	0	558	37	0	
15	0	0	0	0	507	512	0	575	37	0	
0	0	0	0	0	516	511	0	590	37	0	
1	0	0	0	0	511	510	0	597	38	0	
2	0	0	0	0	510	510	0	604	37	0	
3	0	0	0	0	516	513	0	608	37	0	
4	0	0	0	0	520	513	1	611	37	0	
5	0	0	0	0	511	511	0	619	37	0	
6	0	0	0	0	505	512	0	636	37	0	
7	0	0	0	0	508	512	0	657	37	0	
8	0	0	0	0	519	512	0	681	37	0	
9	0	0	0	0	511	512	0	691	37	0	
10	0	0	0	0	509	512	0	690	37	0	
11	0	0	0	0	508	512	0	680	37	0	
12	0	0	0	0	512	511	1	662	37	0	
13	0	0	0	0	506	508	0	639	37	0	
14	0	0	0	0	513	508	0	624	37	0	
15	0	0	0	0	507	508	0	613	37	0	
0	0	0	0	0	506	510	1	599	37	0	
1	0	0	0	0	504	511	0	575	37	0	
2	0	0	0	0	510	514	0	547	37	0	
3	0	0	0	0	512	513	0	523	37	0	
4	0	0	0	0	505	513	0	498	37	0	
5	0	0	0	0	508	512	0	473	37	0	
6	0	0	0	0	515	513	0	452	37	0	
7	0	0	0	0	509	513	0	436	37	0	
8	0	0	0	0	515	512	1	415	37	0	
9	0	0	0	0	508	511	0	404	38	0	
10	0	0	0	0	517	513	0	409	37	0	
11	0	0	0	0	506	512	0	433	37	0	
12	0	0	0	0	509	512	0	476	37	0	
13	0	0	0	0	507	511	0	519	37	0	
14	0	0	0	0	514	512	0	556	37	0	
15	0	0	0	0	512	513	0	577	37	0	
0	0	0	0	0	511	514	1	592	37	0	
1	0	0	0	0	506	513	0	615	38	0	
2	0	0	0	0	510	513	0	597	37	0	
3	0	0	0	0	508	511	0	579	37	0	
4	0	0	0	0	510	511	1	559	37	0	
5	0	0	0	0	504	509	0	550	37	0	
6	0	0	0	0	508	510	0	551	37	0	
7	0	0	0	0	514	510	0	553	37	0	
8	0	0	0	0	516	510	1	557	37	0	
9	0	0	0	0	513	510	0	562	37	0	
10	0	0	0	0	506	514	0	572	37	0	
11	0	0	0	0	505	513	0	585	37	0	
12	0	0	0	0	512	511	0	608	37	0	
13	0	0	0	0	514	512	0	625	37	0	
14	0	0	0	0	513	511	0	632	37	0	
15	0	0	0	0	513	511	0	627	37	0	
0	0	0	0	0	506	510	0	605	37	0	
1	0	0	0	0	508	509	0	576	37	0	
2	0	0	0	0	512	509	0	547	37	0	
3	0	0	0	0	510	508	0	523	37	0	
4	0	0	0	0	510	508	0	501	37	0	
5	0	0	0	0	513	508	0	491	37	0	
6	0	0	0	0	508	509	0	493	37	0	
7	0	0	0	0	509	508	0	504	37	0	
8	0	0	0	0	510	511	1	519	37	0	
9	0	0	0	0	509	511	0	535	38	0	
10	0	0	0	0	510	512	0	552	37	0	
11	0	0	0	0	508	513	0	574	37	0	
12	0	0	0	0	510	512	0	614	37	0	
13	0	0	0	0	515	511	0	651	37	0	
14	0	0	0	0	513	513	0	688	37	0	
15	0	0	0	0	506	515	0	725	37	0	
0	0	0	0	0	515	513	1	745	37	0	
1	0	0	0	0	511	512	0	749	38	0	
2	0	0	0	0	510	513	0	743	37	0	
3	0	0	0	0	511	515	0	740	37	0	
4	0	0	0	0	512	513	1	727	37	0	
5	0	0	0	0	508	511	0	706	37	0	
6	0	0	0	0	499	511	0	690	37	0	
7	0	0	0	0	512	512	0	656	37	0	
8	0	0	0	0	509	511	1	634	37	0	
9	0	0	0	0	510	508	0	615	38	0	
10	0	0	0	0	517	508	0	592	37	0	
11	0	0	0	0	507	509	0	570	37	0	
12	0	0	0	0	509	508	0	538	37	0	
13	0	0	0	0	515	509	0	511	37	0	
14	0	0	0	0	512	512	0	484	37	0	
15	0	0	0	0	511	513	0	461	37	0	
0	0	0	0	0	505	513	0	439	37	0	
1	0	0	0	0	507	514	0	430	37	0	
2	0	0	0	0	510	513	0	425	37	0	
3	0	0	0	0	509	514	0	416	37	0	
4	0	0	0	0	504	515	1	415	37	0	
5	0	0	0	0	516	512	0	420	37	0	
6	0	0	0	0	518	513	0	433	37	0	
7	0	0	0	0	508	512	0	455	37	0	
8	0	0	0	0	510	512	0	475	37	0	
9	0	0	0	0	512	512	0	488	37	0	
10	0	0	0	0	512	514	0	505	37	0	
11	0	0	0	0	505	514	0	520	37	0	
12	0	0	0	0	509	512	0	538	37	0	
13	0	0	0	0	508	511	0	559	37	0	
14	0	0	0	0	514	513	0	580	37	0	
15	0	0	0	0	512	512	0	603	37	0	
0	0	0	0	0	509	509	0	629	37	0	
1	0	0	0	0	511	511	0	651	38	0	
2	0	0	0	0	510	512	0	680	37	0	
3	0	0	0	0	505	514	0	716	37	0	
4	0	0	0	0	510	513	0	752	37	0	
5	0	0	0	0	505	513	0	774	37	0	
6	0	0	0	0	516	511	0	779	37	0	
7	0	0	0	0	513	511	0	764	37	0	
8	0	0	0	0	507	510	1	727	37	0	
9	0	0	0	0	514	509	0	687	38	0	
10	0	0	0	0	512	510	0	648	37	0	
11	0	0	0	0	509	511	0	601	37	0	
12	0	0	0	0	512	511	0	556	37	0	
13	0	0	0	0	511	511	0	512	37	0	
14	0	0	0	0	512	511	0	484	37	0	
15	0	0	0	0	503	512	0	469	37	0	
0	0	0	0	0	512	510	0	464	37	0	
1	0	0	0	0	511	511	0	467	37	0	
2	0	0	0	0	509	512	0	478	37	0	
3	0	0	0	0	504	511	0	496	37	0	
4	0	0	0	0	508	510	0	514	37	0	
5	0	0	0	0	514	511	0	528	37	0	
6	0	0	0	0	515	511	0	539	37	0	
7	0	0	0	0	510	512	0	539	37	0	
8	0	0	0	0	507	510	1	529	37	0	
9	0	0	0	0	510	510	0	509	38	0	
10	0	0	0	0	511	511	0	486	37	0	
11	0	0	0	0	504	512	0	464	37	0	
12	0	0	0	0	516	512	0	448	37	0	
13	0	0	0	0	515	511	0	443	37	0	
14	0	0	0	0	504	512	0	447	37	0	
15	0	0	0	0	515	512	0	444	37	0	
0	0	0	0	0	512	514	1	438	37	0	
1	0	0	0	0	504	514	0	444	37	0	
2	0	0	0	0	502	513	0	445	37	0	
3	0	0	0	0	510	515	0	463	37	0	
4	0	0	0	0	511	512	1	483	37	0	
5	0	0	0	0	516	512	0	504	37	0	
6	0	0	0	0	516	513	0	515	37	0	
7	0	0	0	0	511	514	0	522	37	0	
8	0	0	0	0	512	516	1	523	37	0	
9	0	0	0	0	513	514	0	527	38	0	
10	0	0	0	0	512	513	0	541	37	0	
11	0	0	0	0	508	515	0	537	37	0	
12	0	0	0	0	501	514	0	542	37	0	
13	0	0	0	0	503	516	0	551	37	0	
14	0	0	0	0	514	514	0	556	37	0	
15	0	0	0	0	513	513	0	551	37	0	
0	0	0	0	0	516	513	1	544	37	0	
1	0	0	0	0	510	513	0	544	38	0	
2	0	0	0	0	513	513	0	536	37	0	
3	0	0	0	0	512	512	0	531	37	0	
4	0	0	0	0	511	512	0	532	37	0	
5	0	0	0	0	504	512	0	536	37	0	
6	0	0	0	0	504	513	0	552	37	0	
7	0	0	0	0	511	513	0	571	37	0	
8	0	0	0	0	510	513	0	595	37	0	
9	0	0	0	0	505	512	0	615	37	0	
10	0	0	0	0	513	513	0	642	37	0	
11	0	0	0	0	509	512	0	675	37	0	
12	0	0	0	0	505	513	1	712	37	0	
13	0	0	0	0	513	512	0	739	37	0	
14	0	0	0	0	512	512	0	742	37	0	
15	0	0	0	0	511	511	0	729	37	0	
0	0	0	0	0	511	512	1	708	37	0	
1	0	0	0	0	510	512	0	685	38	0	
2	0	0	0	0	512	513	0	659	37	0	
3	0	0	0	0	508	513	0	630	37	0	
4	0	0	0	0	511	513	1	582	37	0	
5	0	0	0	0	504	510	0	529	37	0	
6	0	0	0	0	510	510	0	477	37	0	
7	0	0	0	0	511	511	0	451	37	0	
8	0	0	0	0	514	512	1	428	37	0	
9	0	0	0	0	512	510	0	442	38	0	
10	0	0	0	0	513	512	0	468	37	0	
11	0	0	0	0	517	513	0	492	37	0	
12	0	0	0	0	508	513	1	516	37	0	
13	0	0	0	0	506	511	0	542	37	0	
14	0	0	0	0	512	511	0	571	37	0	
15	0	0	0	0	509	513	0	594	37	0	
0	0	0	0	0	508	512	0	604	37	0	
1	0	0	0	0	506	513	0	596	38	0	
2	0	0	0	0	512	513	0	582	37	0	
3	0	0	0	0	510	514	0	576	37	0	
4	0	0	0	0	513	513	1	576	37	0	
5	0	0	0	0	513	511	0	579	37	0	
6	0	0	0	0	516	511	0	584	37	0	
7	0	0	0	0	510	512	0	587	37	0	
8	0	0	0	0	511	511	0	596	37	0	
9	0	0	0	0	507	511	0	608	38	0	
10	0	0	0	0	509	511	0	615	37	0	
11	0	0	0	0	504	513	0	620	37	0	
12	0	0	0	0	510	515	1	625	37	0	
13	0	0	0	0	508	513	0	626	37	0	
14	0	0	0	0	508	513	0	623	37	0	
15	0	0	0	0	509	514	0	641	37	0	
0	0	0	0	0	512	515	1	627	37	0	
1	0	0	0	0	512	513	0	627	37	0	
2	0	0	0	0	517	514	0	616	37	0	
3	0	0	0	0	507	515	0	591	37	0	
4	0	0	0	0	513	515	1	556	37	0	
5	0	0	0	0	512	515	0	519	37	0	
6	0	0	0	0	508	514	0	492	37	0	
7	0	0	0	0	508	515	0	476	37	0	
8	0	0	0	0	508	512	0	467	37	0	
9	0	0	0	0	504	511	0	469	38	0	
10	0	0	0	0	508	513	0	483	37	0	
11	0	0	0	0	503	512	0	500	37	0	
12	0	0	0	0	512	510	1	520	37	0	
13	0	0	0	0	508	509	0	533	37	0	
14	0	0	0	0	518	511	0	535	37	0	
15	0	0	0	0	512	511	0	537	37	0	
0	0	0	0	0	512	510	1	541	37	0	
1	0	0	0	0	510	510	0	543	37	0	
2	0	0	0	0	503	509	0	546	37	0	
3	0	0	0	0	507	507	0	553	37	0	
4	0	0	0	0	501	507	1	568	37	0	
5	0	0	0	0	515	505	0	578	37	0	
6	0	0	0	0	511	509	0	586	37	0	
7	0	0	0	0	512	511	0	595	37	0	
8	0	0	0	0	511	510	0	609	37	0	
9	0	0	0	0	510	510	0	633	38	0	
10	0	0	0	0	514	510	0	626	37	0	
11	0	0	0	0	511	512	0	625	37	0	
12	0	0	0	0	508	512	0	630	37	0	
13	0	0	0	0	510	513	0	638	37	0	
14	0	0	0	0	508	513	0	640	37	0	
15	0	0	0	0	507	515	0	624	37	0	
0	0	0	0	0	510	512	0	603	37	0	
1	0	0	0	0	513	513	0	581	38	0	
2	0	0	0	0	516	515	0	563	37	0	
3	0	0	0	0	508	514	0	550	37	0	
4	0	0	0	0	513	513	1	538	37	0	
5	0	0	0	0	507	509	0	529	37	0	
6	0	0	0	0	512	509	0	526	37	0	
7	0	0	0	0	508	509	0	534	37	0	
8	0	0	0	0	506	507	0	553	37	0	
9	0	0	0	0	506	508	0	578	38	0	
10	0	0	0	0	504	510	0	587	37	0	
11	0	0	0	0	517	509	0	587	37	0	
12	0	0	0	0	511	511	1	577	37	0	
13	0	0	0	0	510	512	0	561	37	0	
14	0	0	0	0	515	512	0	537	37	0	
15	0	0	0	0	507	514	0	512	37	0	
0	0	0	0	0	512	512	0	483	37	0	
1	0	0	0	0	516	513	0	455	37	0	
2	0	0	0	0	512	512	0	433	37	0	
3	0	0	0	0	506	514	0	424	37	0	
4	0	0	0	0	512	513	1	426	37	0	
5	0	0	0	0	506	513	0	438	37	0	
6	0	0	0	0	504	512	0	452	37	0	
7	0	0	0	0	512	512	0	475	37	0	
8	0	0	0	0	507	510	0	502	37	0	
9	0	0	0	0	513	511	0	523	37	0	
10	0	0	0	0	511	513	0	538	37	0	
11	0	0	0	0	513	513	0	536	37	0	
12	0	0	0	0	510	510	0	516	37	0	
13	0	0	0	0	512	510	0	499	37	0	
14	0	0	0	0	515	511	0	486	37	0	
15	0	0	0	0	511	512	0	470	37	0	
0	0	0	0	0	512	512	0	462	37	0	
1	0	0	0	0	508	513	0	462	38	0	
2	0	0	0	0	508	513	0	457	37	0	
3	0	0	0	0	508	513	0	458	37	0	
4	0	0	0	0	507	511	1	465	37	0	
5	0	0	0	0	513	511	0	473	37	0	
6	0	0	0	0	510	512	0	483	37	0	
7	0	0	0	0	510	513	0	506	37	0	
8	0	0	0	0	511	514	1	522	37	0	
9	0	0	0	0	508	512	0	533	38	0	
10	0	0	0	0	518	512	0	534	37	0	
11	0	0	0	0	511	513	0	519	37	0	
12	0	0	0	0	509	512	1	500	38	0	
13	0	0	0	0	502	511	0	479	37	0	
14	0	0	0	0	507	513	0	462	37	0	
15	0	0	0	0	509	513	0	447	37	0	
0	0	0	0	0	513	512	0	437	37	0	
1	0	0	0	0	511	512	0	444	38	0	
2	0	0	0	0	514	512	0	466	37	0	
3	0	0	0	0	509	513	0	498	37	0	
4	0	0	0	0	508	513	0	537	37	0	
5	0	0	0	0	505	513	0	573	37	0	
6	0	0	0	0	512	512	0	602	37	0	
7	0	0	0	0	503	514	0	605	37	0	
8	0	0	0	0	508	513	0	584	37	0	
9	0	0	0	0	510	511	0	553	38	0	
10	0	0	0	0	509	512	0	528	37	0	
11	0	0	0	0	514	513	0	508	37	0	
12	0	0	0	0	508	512	1	494	37	0	
13	0	0	0	0	512	514	0	487	37	0	
14	0	0	0	0	507	514	0	479	37	0	
15	0	0	0	0	507	515	0	471	37	0	
0	0	0	0	0	518	515	1	460	37	0	
1	0	0	0	0	511	514	0	445	38	0	
2	0	0	0	0	509	514	0	419	37	0	
3	0	0	0	0	504	515	0	398	37	0	
4	0	0	0	0	509	513	0	376	37	0	
5	0	0	0	0	514	511	0	355	37	0	
6	0	0	0	0	510	511	0	331	37	0	
7	0	0	0	0	516	511	0	307	37	0	
8	0	0	0	0	509	511	0	294	37	0	
9	0	0	0	0	507	513	0	293	38	0	
10	0	0	0	0	514	512	0	297	37	0	
11	0	0	0	0	513	514	0	304	37	0	
12	0	0	0	0	503	514	0	320	37	0	
13	0	0	0	0	508	513	0	347	37	0	
14	0	0	0	0	505	515	0	380	37	0	
15	0	0	0	0	504	514	0	415	37	0	
0	0	0	0	0	509	514	1	446	37	0	
1	0	0	0	0	508	513	0	473	38	0	
2	0	0	0	0	509	514	0	492	37	0	
3	0	0	0	0	508	515	0	503	37	0	
4	0	0	0	0	508	513	0	493	37	0	
5	0	0	0	0	521	513	0	479	37	0	
6	0	0	0	0	515	513	0	471	37	0	
7	0	0	0	0	515	513	0	471	37	0	
8	0	0	0	0	510	514	1	489	37	0	
9	0	0	0	0	507	511	0	529	38	0	
10	0	0	0	0	514	513	0	573	37	0	
11	0	0	0	0	509	514	0	604	37	0	
12	0	0	0	0	509	516	1	635	37	0	
13	0	0	0	0	513	515	0	666	37	0	
14	0	0	0	0	507	511	0	677	37	0	
15	0	0	0	0	502	513	0	659	37	0	
0	0	0	0	0	512	511	1	612	37	0	
1	0	0	0	0	513	510	0	548	38	0	
2	0	0	0	0	510	511	0	480	37	0	
3	0	0	0	0	517	513	0	426	37	0	
4	0	0	0	0	513	513	1	384	37	0	
5	0	0	0	0	512	512	0	355	37	0	
6	0	0	0	0	504	513	0	339	37	0	
7	0	0	0	0	506	513	0	336	37	0	
8	0	0	0	0	510	513	0	344	37	0	
9	0	0	0	0	507	513	0	360	37	0	
10	0	0	0	0	510	514	0	395	37	0	
11	0	0	0	0	519	514	0	414	37	0	
12	0	0	0	0	510	514	1	438	37	0	
13	0	0	0	0	508	512	0	458	37	0	
14	0	0	0	0	512	512	0	484	37	0	
15	0	0	0	0	514	513	0	518	37	0	
0	0	0	0	0	503	513	0	543	37	0	
1	0	0	0	0	511	516	0	553	38	0	
2	0	0	0	0	504	514	0	557	37	0	
3	0	0	0	0	507	514	0	567	37	0	
4	0	0	0	0	510	515	0	580	37	0	
5	0	0	0	0	516	515	0	570	37	0	
6	0	0	0	0	507	515	0	561	37	0	
7	0	0	0	0	511	514	0	550	37	0	
8	0	0	0	0	509	512	1	532	37	0	
9	0	0	0	0	516	511	0	516	38	0	
10	0	0	0	0	505	511	0	497	37	0	
11	0	0	0	0	507	513	0	483	37	0	
12	0	0	0	0	513	513	1	478	37	0	
13	0	0	0	0	510	512	0	476	37	0	
14	0	0	0	0	510	510	0	472	37	0	
15	0	0	0	0	509	510	0	479	37	0	
0	0	0	0	0	511	510	0	500	37	0	
1	0	0	0	0	506	510	0	526	38	0	
2	0	0	0	0	512	510	0	556	37	0	
3	0	0	0	0	511	512	0	574	37	0	
4	0	0	0	0	515	512	0	579	37	0	
5	0	0	0	0	511	512	0	587	37	0	
6	0	0	0	0	516	513	0	588	37	0	
7	0	0	0	0	507	514	0	579	37	0	
8	0	0	0	0	510	514	1	563	37	0	
9	0	0	0	0	500	515	0	551	38	0	
10	0	0	0	0	512	516	0	530	37	0	
11	0	0	0	0	507	515	0	503	37	0	
12	0	0	0	0	513	513	1	468	37	0	
13	0	0	0	0	508	511	0	440	37	0	
14	0	0	0	0	507	512	0	416	37	0	
15	0	0	0	0	516	512	0	408	37	0	
0	0	0	0	0	508	512	0	410	37	0	
1	0	0	0	0	507	511	0	415	38	0	
2	0	0	0	0	516	513	0	430	37	0	
3	0	0	0	0	512	511	0	447	37	0	
4	0	0	0	0	507	511	1	468	37	0	
5	0	0	0	0	513	512	0	488	37	0	
6	0	0	0	0	512	513	0	504	37	0	
7	0	0	0	0	517	513	0	500	37	0	
8	0	0	0	0	514	510	0	489	37	0	
9	0	0	0	0	503	510	0	482	37	0	
10	0	0	0	0	503	510	0	480	37	0	
11	0	0	0	0	511	509	0	485	37	0	
12	0	0	0	0	513	511	0	489	37	0	
13	0	0	0	0	508	513	0	494	37	0	
14	0	0	0	0	508	512	0	503	37	0	
15	0	0	0	0	510	512	0	513	37	0	
0	0	0	0	0	509	510	1	515	37	0	
1	0	0	0	0	508	510	0	522	38	0	
2	0	0	0	0	512	510	0	538	37	0	
3	0	0	0	0	520	509	0	554	37	0	
4	0	0	0	0	511	508	0	561	37	0	
5	0	0	0	0	505	509	0	566	37	0	
6	0	0	0	0	512	512	0	561	37	0	
7	0	0	0	0	510	512	0	555	37	0	
8	0	0	0	0	504	511	0	546	37	0	
9	0	0	0	0	507	511	0	543	38	0	
10	0	0	0	0	509	509	0	545	37	0	
11	0	0	0	0	511	511	0	559	37	0	
12	0	0	0	0	510	513	1	561	37	0	
13	0	0	0	0	510	513	0	571	37	0	
14	0	0	0	0	507	514	0	586	37	0	
15	0	0	0	0	511	514	0	604	37	0	
0	0	0	0	0	511	513	0	613	37	0	
1	0	0	0	0	507	513	0	607	38	0	
2	0	0	0	0	512	512	0	591	37	0	
3	0	0	0	0	514	514	0	562	37	0	
4	0	0	0	0	510	513	1	525	37	0	
5	0	0	0	0	513	511	0	504	37	0	
6	0	0	0	0	508	513	0	501	37	0	
7	0	0	0	0	510	513	0	506	37	0	
8	0	0	0	0	514	512	0	512	37	0	
9	0	0	0	0	517	512	0	513	37	0	
10	0	0	0	0	502	512	0	513	37	0	
11	0	0	0	0	513	512	0	521	37	0	
12	0	0	0	0	511	511	0	533	37	0	
13	0	0	0	0	517	512	0	545	37	0	
14	0	0	0	0	506	510	0	556	37	0	
15	0	0	0	0	510	512	0	560	37	0	
0	0	0	0	0	514	513	1	556	37	0	
1	0	0	0	0	513	511	0	554	38	0	
2	0	0	0	0	508	512	0	550	37	0	
3	0	0	0	0	512	512	0	543	37	0	
4	0	0	0	0	513	513	1	535	37	0	
5	0	0	0	0	507	512	0	527	37	0	
6	0	0	0	0	503	513	0	521	37	0	
7	0	0	0	0	511	514	0	527	37	0	
8	0	0	0	0	507	515	1	532	37	0	
9	0	0	0	0	504	515	0	536	38	0	
10	0	0	0	0	511	515	0	540	37	0	
11	0	0	0	0	514	514	0	543	37	0	
12	0	0	0	0	507	512	0	548	37	0	
13	0	0	0	0	513	511	0	558	37	0	
14	0	0	0	0	514	512	0	562	37	0	
15	0	0	0	0	505	512	0	568	37	0	
0	0	0	0	0	513	513	1	579	37	0	
1	0	0	0	0	508	511	0	591	37	0	
2	0	0	0	0	505	510	0	596	37	0	
3	0	0	0	0	514	511	0	612	37	0	
4	0	0	0	0	504	511	1	628	37	0	
5	0	0	0	0	512	511	0	636	37	0	
6	0	0	0	0	513	511	0	628	37	0	
7	0	0	0	0	511	511	0	608	37	0	
8	0	0	0	0	511	508	0	581	37	0	
9	0	0	0	0	513	511	0	553	38	0	
10	0	0	0	0	513	511	0	529	37	0	
11	0	0	0	0	513	513	0	506	37	0	
12	0	0	0	0	508	513	1	481	37	0	
13	0	0	0	0	512	513	0	455	37	0	
14	0	0	0	0	510	513	0	428	37	0	
15	0	0	0	0	507	513	0	408	37	0	
0	0	0	0	0	500	513	1	394	37	0	
1	0	0	0	0	513	512	0	393	37	0	
2	0	0	0	0	515	514	0	400	37	0	
3	0	0	0	0	512	513	0	425	37	0	
4	0	0	0	0	512	513	0	449	37	0	
5	0	0	0	0	509	513	0	475	37	0	
6	0	0	0	0	506	512	0	505	37	0	
7	0	0	0	0	509	513	0	539	37	0	
8	0	0	0	0	511	513	1	569	37	0	
9	0	0	0	0	509	513	0	597	37	0	
10	0	0	0	0	509	513	0	615	37	0	
11	0	0	0	0	515	513	0	615	37	0	
12	0	0	0	0	509	513	1	608	37	0	
13	0	0	0	0	511	513	0	608	37	0	
14	0	0	0	0	510	514	0	615	37	0	
15	0	0	0	0	517	514	0	622	37	0	
0	0	0	0	0	517	514	1	619	37	0	
1	0	0	0	0	504	513	0	615	38	0	
2	0	0	0	0	506	515	0	613	37	0	
3	0	0	0	0	512	515	0	624	37	0	
4	0	0	0	0	513	514	0	629	37	0	
5	0	0	0	0	515	513	0	615	37	0	
6	0	0	0	0	510	513	0	583	37	0	
7	0	0	0	0	510	514	0	546	37	0	
8	0	0	0	0	504	515	0	515	37	0	
9	0	0	0	0	510	515	0	488	38	0	
10	0	0	0	0	505	515	0	464	37	0	
11	0	0	0	0	517	517	0	440	37	0	
12	0	0	0	0	505	517	1	419	37	0	
13	0	0	0	0	508	515	0	406	37	0	
14	0	0	0	0	510	516	0	384	37	0	
15	0	0	0	0	511	516	0	372	37	0	
0	0	0	0	0	512	513	0	362	37	0	
1	0	0	0	0	508	514	0	363	37	0	
2	0	0	0	0	518	514	0	363	37	0	
3	0	0	0	0	514	514	0	370	37	0	
4	0	0	0	0	509	513	1	380	37	0	
5	0	0	0	0	511	509	0	398	37	0	
6	0	0	0	0	506	508	0	413	37	0	
7	0	0	0	0	509	509	0	425	37	0	
8	0	0	0	0	515	509	1	429	37	0	
9	0	0	0	0	508	510	0	440	37	0	
10	0	0	0	0	511	511	0	455	37	0	
11	0	0	0	0	507	512	0	473	37	0	
12	0	0	0	0	510	511	1	490	37	0	
13	0	0	0	0	507	510	0	502	37	0	
14	0	0	0	0	509	510	0	512	37	0	
15	0	0	0	0	512	509	0	517	37	0	
0	0	0	0	0	503	508	1	521	37	0	
1	0	0	0	0	511	507	0	529	38	0	
2	0	0	0	0	515	508	0	547	37	0	
3	0	0	0	0	515	510	0	571	37	0	
4	0	0	0	0	514	510	0	591	37	0	
5	0	0	0	0	504	510	0	591	37	0	
6	0	0	0	0	510	512	0	583	37	0	
7	0	0	0	0	517	513	0	568	37	0	
8	0	0	0	0	509	513	1	547	37	0	
9	0	0	0	0	511	513	0	519	38	0	
10	0	0	0	0	509	512	0	483	37	0	
11	0	0	0	0	511	513	0	442	37	0	
12	0	0	0	0	510	514	1	407	38	0	
13	0	0	0	0	507	513	0	376	37	0	
14	0	0	0	0	507	513	0	353	37	0	
15	0	0	0	0	512	512	0	339	37	0	
0	0	0	0	0	506	511	0	331	37	0	
1	0	0	0	0	505	512	0	334	37	0	
2	0	0	0	0	514	511	0	348	37	0	
3	0	0	0	0	520	511	0	376	37	0	
4	0	0	0	0	510	510	1	410	37	0	
5	0	0	0	0	506	509	0	440	37	0	
6	0	0	0	0	507	509	0	469	37	0	
7	0	0	0	0	506	510	0	495	37	0	
8	0	0	0	0	513	509	0	512	37	0	
9	0	0	0	0	511	511	0	512	37	0	
10	0	0	0	0	511	514	0	512	37	0	
11	0	0	0	0	504	515	0	527	37	0	
12	0	0	0	0	513	516	0	559	37	0	
13	0	0	0	0	512	516	0	595	37	0	
14	0	0	0	0	512	515	0	638	37	0	
15	0	0	0	0	515	514	0	668	37	0	
0	0	0	0	0	519	512	0	674	37	0	
1	0	0	0	0	502	512	0	657	37	0	
2	0	0	0	0	508	514	0	641	37	0	
3	0	0	0	0	506	513	0	618	37	0	
4	0	0	0	0	517	513	0	586	37	0	
5	0	0	0	0	513	512	0	540	37	0	
6	0	0	0	0	512	510	0	492	37	0	
7	0	0	0	0	513	512	0	454	37	0	
8	0	0	0	0	508	513	1	429	37	0	
9	0	0	0	0	508	510	0	407	38	0	
10	0	0	0	0	508	511	0	380	37	0	
11	0	0	0	0	518	512	0	355	37	0	
12	0	0	0	0	507	511	0	343	37	0	
13	0	0	0	0	511	512	0	343	37	0	
14	0	0	0	0	509	512	0	355	37	0	
15	0	0	0	0	505	515	0	377	37	0	
0	0	0	0	0	504	515	1	403	37	0	
1	0	0	0	0	504	514	0	423	38	0	
2	0	0	0	0	511	511	0	434	37	0	
3	0	0	0	0	509	511	0	445	37	0	
4	0	0	0	0	512	511	1	449	37	0	
5	0	0	0	0	509	509	0	458	37	0	
6	0	0	0	0	514	509	0	466	37	0	
7	0	0	0	0	514	510	0	486	37	0	
8	0	0	0	0	512	512	1	488	37	0	
9	0	0	0	0	510	512	0	497	37	0	
10	0	0	0	0	514	514	0	498	37	0	
11	0	0	0	0	504	514	0	502	37	0	
12	0	0	0	0	504	512	1	494	37	0	
13	0	0	0	0	510	511	0	500	37	0	
14	0	0	0	0	512	511	0	505	37	0	
15	0	0	0	0	510	511	0	507	37	0	
0	0	0	0	0	506	511	0	501	37	0	
1	0	0	0	0	512	508	0	504	38	0	
2	0	0	0	0	513	510	0	526	37	0	
3	0	0	0	0	511	511	0	545	37	0	
4	0	0	0	0	514	511	0	566	37	0	
5	0	0	0	0	508	510	0	576	37	0	
6	0	0	0	0	509	509	0	574	37	0	
7	0	0	0	0	505	510	0	561	37	0	
8	0	0	0	0	510	513	1	537	37	0	
9	0	0	0	0	520	510	0	507	38	0	
10	0	0	0	0	512	511	0	477	37	0	
11	0	0	0	0	502	511	0	449	37	0	
12	0	0	0	0	512	512	0	423	37	0	
13	0	0	0	0	511	512	0	407	37	0	
14	0	0	0	0	508	512	0	402	37	0	
15	0	0	0	0	514	513	0	400	37	0	
0	0	0	0	0	509	512	0	397	37	0	
1	0	0	0	0	515	513	0	387	37	0	
2	0	0	0	0	512	512	0	391	37	0	
3	0	0	0	0	504	511	0	404	37	0	
4	0	0	0	0	507	512	1	425	37	0	
5	0	0	0	0	506	511	0	450	37	0	
6	0	0	0	0	503	511	0	485	37	0	
7	0	0	0	0	515	511	0	521	37	0	
8	0	0	0	0	506	514	1	556	37	0	
9	0	0	0	0	513	512	0	582	38	0	
10	0	0	0	0	510	511	0	588	37	0	
11	0	0	0	0	511	512	0	569	37	0	
12	0	0	0	0	517	513	1	538	37	0	
13	0	0	0	0	511	513	0	517	37	0	
14	0	0	0	0	513	513	0	504	37	0	
15	0	0	0	0	510	514	0	495	37	0	
0	0	0	0	0	514	515	1	482	37	0	
1	0	0	0	0	508	513	0	477	38	0	
2	0	0	0	0	505	513	0	482	37	0	
3	0	0	0	0	513	513	0	484	37	0	
4	0	0	0	0	503	515	1	486	37	0	
5	0	0	0	0	507	515	0	493	37	0	
6	0	0	0	0	505	514	0	497	37	0	
7	0	0	0	0	518	516	0	496	37	0	
8	0	0	0	0	522	515	0	496	37	0	
9	0	0	0	0	513	515	0	487	37	0	
10	0	0	0	0	505	515	0	468	37	0	
11	0	0	0	0	503	514	0	443	37	0	
12	0	0	0	0	509	514	1	423	37	0	
13	0	0	0	0	507	514	0	414	37	0	
14	0	0	0	0	507	515	0	420	37	0	
15	0	0	0	0	510	513	0	438	37	0	
0	0	0	0	0	512	512	1	456	37	0	
1	0	0	0	0	507	511	0	482	37	0	
2	0	0	0	0	511	511	0	489	37	0	
3	0	0	0	0	512	511	0	512	37	0	
4	0	0	0	0	513	512	1	515	37	0	
5	0	0	0	0	514	512	0	516	37	0	
6	0	0	0	0	507	512	0	518	37	0	
7	0	0	0	0	511	512	0	525	37	0	
8	0	0	0	0	507	513	1	534	37	0	
9	0	0	0	0	505	514	0	548	37	0	
10	0	0	0	0	512	515	0	558	37	0	
11	0	0	0	0	514	516	0	561	37	0	
12	0	0	0	0	508	515	1	561	37	0	
13	0	0	0	0	508	516	0	562	37	0	
14	0	0	0	0	512	515	0	563	37	0	
15	0	0	0	0	516	517	0	556	37	0	
0	0	0	0	0	511	513	1	548	37	0	
1	0	0	0	0	513	513	0	547	37	0	
2	0	0	0	0	510	513	0	553	37	0	
3	0	0	0	0	509	513	0	568	37	0	
4	0	0	0	0	508	514	1	581	37	0	
5	0	0	0	0	507	514	0	590	37	0	
6	0	0	0	0	513	514	0	595	37	0	
7	0	0	0	0	514	515	0	600	37	0	
8	0	0	0	0	505	515	0	607	37	0	
9	0	0	0	0	508	513	0	607	38	0	
10	0	0	0	0	508	512	0	598	37	0	
11	0	0	0	0	510	514	0	585	37	0	
12	0	0	0	0	505	515	0	567	37	0	
13	0	0	0	0	500	515	0	548	37	0	
14	0	0	0	0	512	515	0	528	37	0	
15	0	0	0	0	507	515	0	513	37	0	
0	0	0	0	0	518	514	0	500	37	0	
1	0	0	0	0	513	511	0	474	37	0	
2	0	0	0	0	515	512	0	441	37	0	
3	0	0	0	0	515	513	0	417	37	0	
4	0	0	0	0	510	510	0	398	37	0	
5	0	0	0	0	508	511	0	379	37	0	
6	0	0	0	0	505	510	0	361	37	0	
7	0	0	0	0	506	511	0	348	37	0	
8	0	0	0	0	513	512	1	334	37	0	
9	0	0	0	0	518	511	0	328	37	0	
10	0	0	0	0	508	511	0	344	37	0	
11	0	0	0	0	503	511	0	340	37	0	
12	0	0	0	0	510	510	0	350	37	0	
13	0	0	0	0	508	509	0	363	37	0	
14	0	0	0	0	504	510	0	385	37	0	
15	0	0	0	0	507	510	0	416	37	0	
0	0	0	0	0	518	512	1	451	37	0	
1	0	0	0	0	512	511	0	481	37	0	
2	0	0	0	0	511	511	0	499	37	0	
3	0	0	0	0	506	512	0	507	37	0	
4	0	0	0	0	508	513	1	504	37	0	
5	0	0	0	0	508	510	0	499	37	0	
6	0	0	0	0	509	510	0	494	37	0	
7	0	0	0	0	514	511	0	486	37	0	
8	0	0	0	0	513	510	1	477	37	0	
9	0	0	0	0	512	509	0	477	38	0	
10	0	0	0	0	503	510	0	481	37	0	
11	0	0	0	0	511	510	0	480	37	0	
12	0	0	0	0	510	512	1	482	37	0	
13	0	0	0	0	508	512	0	488	37	0	
14	0	0	0	0	511	511	0	496	37	0	
15	0	0	0	0	515	511	0	493	37	0	
0	0	0	0	0	510	511	1	486	37	0	
1	0	0	0	0	507	509	0	475	38	0	
2	0	0	0	0	513	511	0	462	37	0	
3	0	0	0	0	512	510	0	454	37	0	
4	0	0	0	0	503	510	1	453	37	0	
5	0	0	0	0	507	509	0	464	37	0	
6	0	0	0	0	511	510	0	478	37	0	
7	0	0	0	0	513	512	0	481	37	0	
8	0	0	0	0	512	512	1	481	37	0	
9	0	0	0	0	510	511	0	489	38	0	
10	0	0	0	0	513	510	0	493	37	0	
11	0	0	0	0	513	511	0	487	37	0	
12	0	0	0	0	507	512	1	479	37	0	
13	0	0	0	0	512	511	0	480	37	0	
14	0	0	0	0	510	511	0	493	37	0	
15	0	0	0	0	507	510	0	499	37	0	
0	0	0	0	0	511	510	0	508	37	0	
1	0	0	0	0	504	510	0	512	37	0	
2	0	0	0	0	511	510	0	516	37	0	
3	0	0	0	0	509	512	0	518	37	0	
4	0	0	0	0	508	510	0	529	37	0	
5	0	0	0	0	507	511	0	553	37	0	
6	0	0	0	0	508	512	0	585	37	0	
7	0	0	0	0	513	512	0	612	37	0	
8	0	0	0	0	512	513	1	632	37	0	
9	0	0	0	0	505	512	0	647	38	0	
10	0	0	0	0	510	513	0	648	37	0	
11	0	0	0	0	513	515	0	636	37	0	
12	0	0	0	0	510	514	0	622	37	0	
13	0	0	0	0	510	514	0	613	37	0	
14	0	0	0	0	509	513	0	607	37	0	
15	0	0	0	0	518	515	0	587	37	0	
0	0	0	0	0	515	515	1	555	37	0	
1	0	0	0	0	505	516	0	528	38	0	
2	0	0	0	0	510	515	0	505	37	0	
3	0	0	0	0	515	514	0	501	37	0	
4	0	0	0	0	510	512	0	508	37	0	
5	0	0	0	0	511	511	0	508	37	0	
6	0	0	0	0	504	510	0	510	37	0	
7	0	0	0	0	511	512	0	507	37	0	
8	0	0	0	0	517	511	1	505	37	0	
9	0	0	0	0	511	511	0	521	37	0	
10	0	0	0	0	512	512	0	538	37	0	
11	0	0	0	0	513	513	0	539	37	0	
12	0	0	0	0	506	513	0	526	37	0	
13	0	0	0	0	504	511	0	519	37	0	
14	0	0	0	0	511	510	0	503	37	0	
15	0	0	0	0	506	511	0	485	37	0	
0	0	0	0	0	517	510	1	479	37	0	
1	0	0	0	0	515	509	0	494	37	0	
2	0	0	0	0	513	510	0	507	37	0	
3	0	0	0	0	508	513	0	513	37	0	
4	0	0	0	0	505	509	1	518	37	0	
5	0	0	0	0	516	509	0	525	37	0	
6	0	0	0	0	509	509	0	539	37	0	
7	0	0	0	0	511	510	0	539	37	0	
8	0	0	0	0	521	511	0	544	37	0	
9	0	0	0	0	507	513	0	548	37	0	
10	0	0	0	0	509	513	0	547	37	0	
11	0	0	0	0	505	513	0	535	37	0	
12	0	0	0	0	509	514	1	519	37	0	
13	0	0	0	0	508	510	0	512	37	0	
14	0	0	0	0	510	513	0	514	37	0	
15	0	0	0	0	514	515	0	515	37	0	
0	0	0	0	0	511	512	0	517	37	0	
1	0	0	0	0	508	512	0	527	38	0	
2	0	0	0	0	512	511	0	537	37	0	
3	0	0	0	0	508	512	0	552	37	0	
4	0	0	0	0	511	511	0	562	37	0	
5	0	0	0	0	510	511	0	563	37	0	
6	0	0	0	0	507	512	0	568	37	0	
7	0	0	0	0	510	513	0	562	37	0	
8	0	0	0	0	512	511	1	540	37	0	
9	0	0	0	0	511	510	0	504	38	0	
10	0	0	0	0	512	510	0	477	37	0	
11	0	0	0	0	510	512	0	449	37	0	
12	0	0	0	0	506	514	1	422	37	0	
13	0	0	0	0	511	511	0	402	37	0	
14	0	0	0	0	516	510	0	391	37	0	
15	0	0	0	0	511	510	0	395	37	0	
0	0	0	0	0	505	508	0	407	37	0	
1	0	0	0	0	515	509	0	417	37	0	
2	0	0	0	0	506	510	0	433	37	0	
3	0	0	0	0	515	511	0	450	37	0	
4	0	0	0	0	509	511	0	467	37	0	
5	0	0	0	0	510	511	0	475	37	0	
6	0	0	0	0	508	510	0	475	37	0	
7	0	0	0	0	506	509	0	463	37	0	
8	0	0	0	0	509	512	1	436	37	0	
9	0	0	0	0	514	511	0	411	37	0	
10	0	0	0	0	509	512	0	390	37	0	
11	0	0	0	0	510	514	0	376	37	0	
12	0	0	0	0	516	513	1	375	37	0	
13	0	0	0	0	515	513	0	386	37	0	
14	0	0	0	0	511	515	0	412	37	0	
15	0	0	0	0	506	515	0	439	37	0	
0	0	0	0	0	507	515	1	465	37	0	
1	0	0	0	0	512	515	0	482	37	0	
2	0	0	0	0	510	515	0	495	37	0	
3	0	0	0	0	508	514	0	519	37	0	
4	0	0	0	0	508	513	0	524	37	0	
5	0	0	0	0	506	511	0	525	37	0	
6	0	0	0	0	512	512	0	525	37	0	
7	0	0	0	0	509	511	0	527	37	0	
8	0	0	0	0	513	513	1	526	37	0	
9	0	0	0	0	511	512	0	530	37	0	
10	0	0	0	0	510	510	0	534	37	0	
11	0	0	0	0	514	510	0	532	37	0	
12	0	0	0	0	513	510	0	531	37	0	
13	0	0	0	0	507	510	0	528	37	0	
14	0	0	0	0	504	512	0	526	37	0	
15	0	0	0	0	510	513	0	520	37	0	
0	0	0	0	0	511	514	1	515	37	0	
1	0	0	0	0	518	513	0	506	37	0	
2	0	0	0	0	508	512	0	492	37	0	
3	0	0	0	0	504	514	0	478	37	0	
4	0	0	0	0	508	514	1	473	37	0	
5	0	0	0	0	507	513	0	470	37	0	
6	0	0	0	0	520	513	0	463	37	0	
7	0	0	0	0	505	514	0	452	37	0	
8	0	0	0	0	512	514	1	436	37	0	
9	0	0	0	0	502	512	0	433	37	0	
10	0	0	0	0	515	511	0	442	37	0	
11	0	0	0	0	512	512	0	459	37	0	
12	0	0	0	0	508	511	1	477	37	0	
13	0	0	0	0	510	510	0	482	37	0	
14	0	0	0	0	515	510	0	485	37	0	
15	0	0	0	0	508	510	0	487	37	0	
0	0	0	0	0	515	511	0	496	37	0	
1	0	0	0	0	504	511	0	480	38	0	
2	0	0	0	0	509	513	0	481	37	0	
3	0	0	0	0	510	512	0	485	37	0	
4	0	0	0	0	503	512	1	480	37	0	
5	0	0	0	0	503	511	0	489	37	0	
6	0	0	0	0	511	513	0	497	37	0	
7	0	0	0	0	520	513	0	498	37	0	
8	0	0	0	0	516	513	1	486	37	0	
9	0	0	0	0	510	511	0	479	37	0	
10	0	0	0	0	511	511	0	474	37	0	
11	0	0	0	0	507	512	0	480	37	0	
12	0	0	0	0	513	511	1	476	37	0	
13	0	0	0	0	505	509	0	472	37	0	
14	0	0	0	0	518	510	0	469	37	0	
15	0	0	0	0	509	511	0	472	37	0	
0	0	0	0	0	512	513	1	476	37	0	
1	0	0	0	0	509	513	0	477	38	0	
2	0	0	0	0	507	513	0	478	37	0	
3	0	0	0	0	510	512	0	482	37	0	
4	0	0	0	0	512	512	0	487	37	0	
5	0	0	0	0	510	509	0	487	37	0	
6	0	0	0	0	508	510	0	492	37	0	
7	0	0	0	0	516	510	0	496	37	0	
8	0	0	0	0	514	510	1	515	37	0	
9	0	0	0	0	513	510	0	544	38	0	
10	0	0	0	0	512	511	0	575	37	0	
11	0	0	0	0	507	512	0	603	37	0	
12	0	0	0	0	507	511	1	625	37	0	
13	0	0	0	0	509	511	0	638	37	0	
14	0	0	0	0	506	511	0	642	37	0	
15	0	0	0	0	506	512	0	639	37	0	
0	0	0	0	0	505	511	1	621	37	0	
1	0	0	0	0	517	510	0	599	38	0	
2	0	0	0	0	510	510	0	575	37	0	
3	0	0	0	0	505	511	0	554	37	0	
4	0	0	0	0	516	512	1	536	37	0	
5	0	0	0	0	513	510	0	521	37	0	
6	0	0	0	0	514	511	0	510	37	0	
7	0	0	0	0	511	513	0	487	37	0	
8	0	0	0	0	512	512	1	465	37	0	
9	0	0	0	0	511	512	0	450	37	0	
10	0	0	0	0	514	512	0	436	37	0	
11	0	0	0	0	505	512	0	431	37	0	
12	0	0	0	0	501	512	1	433	37	0	
13	0	0	0	0	511	510	0	442	37	0	
14	0	0	0	0	511	511	0	453	37	0	
15	0	0	0	0	507	512	0	467	37	0	
0	0	0	0	0	514	513	1	484	37	0	
1	0	0	0	0	515	512	0	500	37	0	
2	0	0	0	0	512	513	0	504	37	0	
3	0	0	0	0	513	513	0	503	37	0	
4	0	0	0	0	505	512	0	504	37	0	
5	0	0	0	0	507	510	0	500	37	0	
6	0	0	0	0	507	508	0	500	37	0	
7	0	0	0	0	511	507	0	516	37	0	
8	0	0	0	0	507	508	0	536	37	0	
9	0	0	0	0	516	509	0	564	38	0	
10	0	0	0	0	516	509	0	568	37	0	
11	0	0	0	0	510	511	0	573	37	0	
12	0	0	0	0	505	511	1	561	37	0	
13	0	0	0	0	507	510	0	537	37	0	
14	0	0	0	0	512	512	0	520	37	0	
15	0	0	0	0	517	512	0	520	37	0	
0	0	0	0	0	513	510	1	523	37	0	
1	0	0	0	0	511	511	0	528	38	0	
2	0	0	0	0	510	511	0	534	37	0	
3	0	0	0	0	511	511	0	533	37	0	
4	0	0	0	0	508	512	1	529	37	0	
5	0	0	0	0	512	512	0	522	37	0	
6	0	0	0	0	511	512	0	514	37	0	
7	0	0	0	0	505	512	0	508	37	0	
8	0	0	0	0	513	514	1	501	37	0	
9	0	0	0	0	504	512	0	499	38	0	
10	0	0	0	0	507	514	0	501	37	0	
11	0	0	0	0	512	516	0	514	37	0	
12	0	0	0	0	521	517	1	532	37	0	
13	0	0	0	0	512	515	0	559	37	0	
14	0	0	0	0	508	516	0	586	37	0	
15	0	0	0	0	512	515	0	609	37	0	
0	0	0	0	0	507	515	1	619	37	0	
1	0	0	0	0	506	513	0	625	37	0	
2	0	0	0	0	512	514	0	622	37	0	
3	0	0	0	0	519	514	0	600	37	0	
4	0	0	0	0	500	513	1	565	37	0	
5	0	0	0	0	507	514	0	541	37	0	
6	0	0	0	0	517	515	0	531	37	0	
7	0	0	0	0	509	513	0	529	37	0	
8	0	0	0	0	512	513	1	525	37	0	
9	0	0	0	0	510	512	0	518	37	0	
10	0	0	0	0	507	511	0	511	37	0	
11	0	0	0	0	510	514	0	506	37	0	
12	0	0	0	0	502	516	1	506	37	0	
13	0	0	0	0	516	512	0	510	37	0	
14	0	0	0	0	514	513	0	505	37	0	
15	0	0	0	0	507	514	0	497	37	0	
0	0	0	0	0	511	513	0	491	37	0	
1	0	0	0	0	509	513	0	484	38	0	
2	0	0	0	0	510	513	0	474	37	0	
3	0	0	0	0	508	511	0	452	37	0	
4	0	0	0	0	510	510	0	436	37	0	
5	0	0	0	0	511	508	0	439	37	0	
6	0	0	0	0	513	510	0	453	37	0	
7	0	0	0	0	512	511	0	476	37	0	
8	0	0	0	0	505	511	1	504	37	0	
9	0	0	0	0	508	512	0	535	38	0	
10	0	0	0	0	515	513	0	560	37	0	
11	0	0	0	0	512	512	0	575	37	0	
12	0	0	0	0	514	512	0	573	37	0	
13	0	0	0	0	516	513	0	568	37	0	
14	0	0	0	0	510	513	0	559	37	0	
15	0	0	0	0	511	512	0	549	37	0	
0	0	0	0	0	512	511	0	558	37	0	
1	0	0	0	0	505	511	0	565	38	0	
2	0	0	0	0	505	511	0	559	37	0	
3	0	0	0	0	510	510	0	553	37	0	
4	0	0	0	0	504	511	1	548	37	0	
5	0	0	0	0	508	510	0	542	37	0	
6	0	0	0	0	508	509	0	529	37	0	
7	0	0	0	0	515	511	0	513	37	0	
8	0	0	0	0	508	511	0	498	37	0	
9	0	0	0	0	508	510	0	485	38	0	
10	0	0	0	0	509	511	0	474	37	0	
11	0	0	0	0	513	511	0	482	37	0	
12	0	0	0	0	512	512	1	491	37	0	
13	0	0	0	0	512	511	0	496	37	0	
14	0	0	0	0	514	512	0	504	37	0	
15	0	0	0	0	507	513	0	502	37	0	
0	0	0	0	0	511	512	1	500	37	0	
1	0	0	0	0	512	510	0	506	37	0	
2	0	0	0	0	509	512	0	517	37	0	
3	0	0	0	0	513	513	0	529	37	0	
4	0	0	0	0	510	515	1	532	37	0	
5	0	0	0	0	515	512	0	543	37	0	
6	0	0	0	0	514	513	0	553	37	0	
7	0	0	0	0	513	513	0	557	37	0	
8	0	0	0	0	517	514	0	555	37	0	
9	0	0	0	0	509	512	0	550	38	0	
10	0	0	0	0	512	512	0	534	37	0	
11	0	0	0	0	503	513	0	510	37	0	
12	0	0	0	0	511	513	1	490	37	0	
13	0	0	0	0	511	511	0	483	37	0	
14	0	0	0	0	504	511	0	478	37	0	
15	0	0	0	0	507	513	0	469	37	0	
0	0	0	0	0	502	514	0	452	37	0	
1	0	0	0	0	515	513	0	440	37	0	
2	0	0	0	0	517	514	0	437	37	0	
3	0	0	0	0	510	513	0	439	37	0	
4	0	0	0	0	511	513	1	445	37	0	
5	0	0	0	0	508	513	0	456	37	0	
6	0	0	0	0	507	515	0	467	37	0	
7	0	0	0	0	511	514	0	468	37	0	
8	0	0	0	0	510	515	0	474	37	0	
9	0	0	0	0	508	513	0	482	37	0	
10	0	0	0	0	511	513	0	489	37	0	
11	0	0	0	0	510	515	0	498	37	0	
12	0	0	0	0	507	513	1	512	37	0	
13	0	0	0	0	511	511	0	527	37	0	
14	0	0	0	0	507	512	0	530	37	0	
15	0	0	0	0	511	512	0	550	37	0	
0	0	0	0	0	509	509	0	533	37	0	
1	0	0	0	0	509	508	0	529	37	0	
2	0	0	0	0	508	508	0	534	37	0	
3	0	0	0	0	511	509	0	535	37	0	
4	0	0	0	0	512	510	1	521	37	0	
5	0	0	0	0	516	510	0	500	37	0	
6	0	0	0	0	514	510	0	481	37	0	
7	0	0	0	0	508	511	0	467	37	0	
8	0	0	0	0	512	511	0	465	37	0	
9	0	0	0	0	510	510	0	467	37	0	
10	0	0	0	0	503	512	0	468	37	0	
11	0	0	0	0	506	513	0	483	37	0	
12	0	0	0	0	511	513	1	513	37	0	
13	0	0	0	0	511	512	0	531	37	0	
14	0	0	0	0	513	513	0	551	37	0	
15	0	0	0	0	512	511	0	572	37	0	
0	0	0	0	0	510	512	1	585	37	0	
1	0	0	0	0	509	512	0	611	38	0	
2	0	0	0	0	508	514	0	632	37	0	
3	0	0	0	0	511	514	0	649	37	0	
4	0	0	0	0	511	511	0	649	37	0	
5	0	0	0	0	506	511	0	639	37	0	
6	0	0	0	0	511	513	0	614	37	0	
7	0	0	0	0	510	513	0	579	37	0	
8	0	0	0	0	508	511	1	548	37	0	
9	0	0	0	0	507	512	0	528	38	0	
10	0	0	0	0	517	511	0	517	37	0	
11	0	0	0	0	512	511	0	516	37	0	
12	0	0	0	0	516	510	0	531	37	0	
13	0	0	0	0	512	511	0	548	37	0	
14	0	0	0	0	507	515	0	554	37	0	
15	0	0	0	0	509	514	0	558	37	0	
0	0	0	0	0	512	515	0	560	37	0	
1	0	0	0	0	518	516	0	556	37	0	
2	0	0	0	0	504	518	0	545	37	0	
3	0	0	0	0	508	516	0	537	37	0	
4	0	0	0	0	517	515	1	531	37	0	
5	0	0	0	0	510	515	0	523	37	0	
6	0	0	0	0	503	513	0	520	37	0	
7	0	0	0	0	506	514	0	532	37	0	
8	0	0	0	0	512	515	1	555	37	0	
9	0	0	0	0	508	513	0	578	38	0	
10	0	0	0	0	510	514	0	596	37	0	
11	0	0	0	0	511	515	0	597	37	0	
12	0	0	0	0	511	515	0	584	37	0	
13	0	0	0	0	511	515	0	566	37	0	
14	0	0	0	0	511	516	0	551	37	0	
15	0	0	0	0	512	514	0	547	37	0	
0	0	0	0	0	513	514	1	546	37	0	
1	0	0	0	0	510	514	0	549	37	0	
2	0	0	0	0	518	513	0	556	37	0	
3	0	0	0	0	504	513	0	567	37	0	
4	0	0	0	0	508	512	0	579	37	0	
5	0	0	0	0	516	512	0	585	37	0	
6	0	0	0	0	508	511	0	583	37	0	
7	0	0	0	0	507	513	0	569	37	0	
8	0	0	0	0	508	513	1	551	37	0	
9	0	0	0	0	505	511	0	530	37	0	
10	0	0	0	0	508	512	0	502	37	0	
11	0	0	0	0	508	512	0	474	37	0	
12	0	0	0	0	514	513	1	454	37	0	
13	0	0	0	0	517	512	0	444	37	0	
14	0	0	0	0	508	512	0	438	37	0	
15	0	0	0	0	510	513	0	448	37	0	
0	0	0	0	0	509	513	1	453	37	0	
1	0	0	0	0	509	512	0	473	37	0	
2	0	0	0	0	508	513	0	488	37	0	
3	0	0	0	0	509	513	0	504	37	0	
4	0	0	0	0	513	515	1	521	37	0	
5	0	0	0	0	510	514	0	537	37	0	
6	0	0	0	0	514	514	0	551	37	0	
7	0	0	0	0	506	513	0	563	37	0	
8	0	0	0	0	509	513	0	572	37	0	
9	0	0	0	0	513	515	0	585	38	0	
10	0	0	0	0	509	515	0	597	37	0	
11	0	0	0	0	505	515	0	603	37	0	
12	0	0	0	0	510	515	0	604	37	0	
13	0	0	0	0	509	514	0	592	37	0	
14	0	0	0	0	517	512	0	568	37	0	
15	0	0	0	0	507	512	0	544	37	0	
0	0	0	0	0	509	511	0	517	37	0	
1	0	0	0	0	507	511	0	496	38	0	
2	0	0	0	0	513	511	0	480	37	0	
3	0	0	0	0	508	511	0	469	37	0	
4	0	0	0	0	510	512	1	452	37	0	
5	0	0	0	0	516	511	0	435	37	0	
6	0	0	0	0	516	512	0	431	37	0	
7	0	0	0	0	508	513	0	446	37	0	
8	0	0	0	0	505	513	1	476	37	0	
9	0	0	0	0	509	512	0	511	37	0	
10	0	0	0	0	507	511	0	548	37	0	
11	0	0	0	0	511	511	0	579	37	0	
12	0	0	0	0	510	510	0	605	37	0	
13	0	0	0	0	517	509	0	627	37	0	
14	0	0	0	0	506	510	0	652	37	0	
15	0	0	0	0	503	511	0	683	37	0	
0	0	0	0	0	514	512	1	727	37	0	
1	0	0	0	0	514	510	0	782	37	0	
2	0	0	0	0	512	510	0	829	37	0	
3	0	0	0	0	509	511	0	853	37	0	
4	0	0	0	0	507	508	0	854	37	0	
5	0	0	0	0	511	509	0	842	37	0	
6	0	0	0	0	505	512	0	803	37	0	
7	0	0	0	0	513	511	0	751	37	0	
8	0	0	0	0	513	509	0	679	37	0	
9	0	0	0	0	512	511	0	604	38	0	
10	0	0	0	0	503	511	0	535	37	0	
11	0	0	0	0	511	513	0	476	37	0	
12	0	0	0	0	512	511	1	423	37	0	
13	0	0	0	0	506	512	0	381	37	0	
14	0	0	0	0	512	511	0	344	37	0	
15	0	0	0	0	515	511	0	307	37	0	
0	0	0	0	0	511	512	1	287	37	0	
1	0	0	0	0	509	511	0	281	38	0	
2	0	0	0	0	509	514	0	276	37	0	
3	0	0	0	0	512	513	0	273	37	0	
4	0	0	0	0	514	513	1	274	38	0	
5	0	0	0	0	506	510	0	285	37	0	
6	0	0	0	0	512	511	0	295	37	0	
7	0	0	0	0	506	511	0	310	37	0	
8	0	0	0	0	507	511	0	331	37	0	
9	0	0	0	0	508	513	0	360	37	0	
10	0	0	0	0	508	513	0	392	37	0	
11	0	0	0	0	515	514	0	422	37	0	
12	0	0	0	0	510	515	1	440	37	0	
13	0	0	0	0	504	513	0	459	37	0	
14	0	0	0	0	521	513	0	475	37	0	
15	0	0	0	0	510	513	0	487	37	0	
0	0	0	0	0	513	513	1	503	37	0	
1	0	0	0	0	506	513	0	513	37	0	
2	0	0	0	0	507	514	0	516	37	0	
3	0	0	0	0	504	514	0	518	37	0	
4	0	0	0	0	506	515	0	510	37	0	
5	0	0	0	0	511	512	0	492	37	0	
6	0	0	0	0	510	513	0	465	37	0	
7	0	0	0	0	512	515	0	448	37	0	
8	0	0	0	0	515	515	0	442	37	0	
9	0	0	0	0	511	514	0	448	38	0	
10	0	0	0	0	506	512	0	464	37	0	
11	0	0	0	0	505	513	0	484	37	0	
12	0	0	0	0	512	513	0	503	37	0	
13	0	0	0	0	512	513	0	513	37	0	
14	0	0	0	0	516	511	0	524	37	0	
15	0	0	0	0	508	512	0	532	37	0	
0	0	0	0	0	509	511	1	542	37	0	
1	0	0	0	0	510	512	0	563	38	0	
2	0	0	0	0	513	512	0	599	37	0	
3	0	0	0	0	514	512	0	646	37	0	
4	0	0	0	0	518	512	1	694	37	0	
5	0	0	0	0	512	512	0	732	37	0	
6	0	0	0	0	514	511	0	767	37	0	
7	0	0	0	0	507	512	0	755	37	0	
8	0	0	0	0	509	510	1	744	37	0	
9	0	0	0	0	511	510	0	723	38	0	
10	0	0	0	0	505	510	0	699	37	0	
11	0	0	0	0	508	511	0	673	37	0	
12	0	0	0	0	510	511	0	641	37	0	
13	0	0	0	0	515	511	0	609	37	0	
14	0	0	0	0	514	511	0	574	37	0	
15	0	0	0	0	508	510	0	540	37	0	
0	0	0	0	0	515	511	1	513	37	0	
1	0	0	0	0	511	510	0	488	37	0	
2	0	0	0	0	512	510	0	462	37	0	
3	0	0	0	0	510	513	0	445	37	0	
4	0	0	0	0	513	513	0	441	37	0	
5	0	0	0	0	513	512	0	447	37	0	
6	0	0	0	0	511	512	0	448	37	0	
7	0	0	0	0	509	513	0	448	37	0	
8	0	0	0	0	510	510	0	448	37	0	
9	0	0	0	0	503	512	0	459	37	0	
10	0	0	0	0	511	511	0	487	37	0	
11	0	0	0	0	506	513	0	512	37	0	
12	0	0	0	0	507	512	1	532	37	0	
13	0	0	0	0	515	511	0	545	37	0	
14	0	0	0	0	512	512	0	547	37	0	
15	0	0	0	0	508	513	0	540	37	0	
0	0	0	0	0	507	512	1	531	37	0	
1	0	0	0	0	503	510	0	520	38	0	
2	0	0	0	0	509	508	0	510	37	0	
3	0	0	0	0	516	509	0	506	37	0	
4	0	0	0	0	508	511	0	511	37	0	
5	0	0	0	0	505	511	0	529	37	0	
6	0	0	0	0	503	513	0	559	37	0	
7	0	0	0	0	517	514	0	603	37	0	
8	0	0	0	0	508	514	1	653	37	0	
9	0	0	0	0	517	512	0	707	38	0	
10	0	0	0	0	513	511	0	709	37	0	
11	0	0	0	0	509	511	0	703	37	0	
12	0	0	0	0	511	512	1	685	37	0	
13	0	0	0	0	513	513	0	664	37	0	
14	0	0	0	0	505	512	0	644	37	0	
15	0	0	0	0	504	512	0	623	37	0	
0	0	0	0	0	515	511	1	591	37	0	
1	0	0	0	0	512	509	0	560	37	0	
2	0	0	0	0	511	510	0	545	37	0	
3	0	0	0	0	510	511	0	541	37	0	
4	0	0	0	0	512	512	0	547	37	0	
5	0	0	0	0	504	513	0	559	37	0	
6	0	0	0	0	513	514	0	572	37	0	
7	0	0	0	0	511	515	0	583	37	0	
8	0	0	0	0	511	516	1	577	37	0	
9	0	0	0	0	502	515	0	572	38	0	
10	0	0	0	0	508	515	0	559	37	0	
11	0	0	0	0	514	514	0	540	37	0	
12	0	0	0	0	509	511	1	519	37	0	
13	0	0	0	0	511	509	0	504	37	0	
14	0	0	0	0	520	509	0	490	37	0	
15	0	0	0	0	508	508	0	471	37	0	
0	0	0	0	0	517	509	0	447	37	0	
1	0	0	0	0	510	510	0	433	37	0	
2	0	0	0	0	510	510	0	430	37	0	
3	0	0	0	0	506	509	0	425	37	0	
4	0	0	0	0	512	509	0	430	37	0	
5	0	0	0	0	512	509	0	430	37	0	
6	0	0	0	0	504	510	0	443	37	0	
7	0	0	0	0	505	513	0	458	37	0	
8	0	0	0	0	508	514	1	462	37	0	
9	0	0	0	0	512	514	0	464	38	0	
10	0	0	0	0	516	513	0	463	37	0	
11	0	0	0	0	507	516	0	462	37	0	
