# OpenSignals Text File Format. Version 1
# {"84:BA:20:AE:BF:DA": {"position": 0, "device": "bitalino_rev", "device name": "84:BA:20:AE:BF:DA", "device connection": "BTH84:BA:20:AE:BF:DA", "sampling rate": 1000, "resolution": [4, 1, 1, 1, 1, 10, 10, 10, 10, 6, 6], "firmware version": 1282, "comments": "", "keywords": "", "mode": 0, "sync interval": 2, "date": "2025-11-16", "time": "17:32:21.225", "channels": [1, 2, 3, 4, 5, 6], "sensor": ["RAW", "RAW", "RAW", "RAW", "RAW", "RAW"], "label": ["A1", "A2", "A3", "A4", "A5", "A6"], "column": ["nSeq", "I1", "I2", "O1", "O2", "A1", "A2", "A3", "A4", "A5", "A6"], "special": [{}, {}, {}, {}, {}, {}], "digital IO": [0, 0, 1, 1]}}
# EndOfHeader
0	0	0	0	0	511	511	0	615	38	0	
1	0	0	0	0	504	511	0	603	38	0	
2	0	0	0	0	511	512	0	600	38	0	
3	0	0	0	0	504	512	0	604	38	0	
4	0	0	0	0	507	511	1	608	38	0	
5	0	0	0	0	515	511	0	620	38	0	
6	0	0	0	0	514	512	0	619	38	0	
7	0	0	0	0	507	512	0	616	38	0	
8	0	0	0	0	504	511	0	603	38	0	
9	0	0	0	0	513	511	0	591	38	0	
10	0	0	0	0	511	512	0	569	38	0	
11	0	0	0	0	512	513	0	538	38	0	
12	0	0	0	0	512	512	1	492	38	0	
13	0	0	0	0	511	511	0	439	38	0	
14	0	0	0	0	514	511	0	398	38	0	
15	0	0	0	0	518	513	0	363	38	0	
0	0	0	0	0	510	515	1	350	38	0	
1	0	0	0	0	501	512	0	363	38	0	
2	0	0	0	0	508	514	0	399	38	0	
3	0	0	0	0	512	513	0	462	38	0	
4	0	0	0	0	507	511	1	543	38	0	
5	0	0	0	0	511	511	0	610	38	0	
6	0	0	0	0	516	512	0	655	38	0	
7	0	0	0	0	509	511	0	684	38	0	
8	0	0	0	0	508	511	0	700	38	0	
9	0	0	0	0	507	511	0	703	38	0	
10	0	0	0	0	513	512	0	691	38	0	
11	0	0	0	0	509	512	0	666	38	0	
12	0	0	0	0	511	513	0	627	38	0	
13	0	0	0	0	506	512	0	576	38	0	
14	0	0	0	0	517	512	0	529	38	0	
15	0	0	0	0	513	514	0	492	38	0	
0	0	0	0	0	511	511	0	475	38	0	
1	0	0	0	0	512	513	0	457	38	0	
2	0	0	0	0	506	513	0	441	38	0	
3	0	0	0	0	509	514	0	427	38	0	
4	0	0	0	0	506	513	1	414	38	0	
5	0	0	0	0	513	511	0	409	38	0	
6	0	0	0	0	512	510	0	415	38	0	
7	0	0	0	0	508	510	0	420	38	0	
8	0	0	0	0	509	510	1	441	38	0	
9	0	0	0	0	511	508	0	447	38	0	
10	0	0	0	0	517	511	0	472	38	0	
11	0	0	0	0	513	512	0	509	38	0	
12	0	0	0	0	512	511	1	564	38	0	
13	0	0	0	0	511	510	0	606	38	0	
14	0	0	0	0	509	511	0	614	38	0	
15	0	0	0	0	500	512	0	611	38	0	
0	0	0	0	0	515	512	1	608	38	0	
1	0	0	0	0	512	511	0	577	38	0	
2	0	0	0	0	513	511	0	562	38	0	
3	0	0	0	0	509	513	0	550	38	0	
4	0	0	0	0	512	514	1	529	38	0	
5	0	0	0	0	510	514	0	529	38	0	
6	0	0	0	0	515	515	0	529	38	0	
7	0	0	0	0	511	516	0	504	38	0	
8	0	0	0	0	517	515	1	467	38	0	
9	0	0	0	0	508	513	0	434	38	0	
10	0	0	0	0	506	513	0	398	38	0	
11	0	0	0	0	507	513	0	362	38	0	
12	0	0	0	0	508	513	1	340	38	0	
13	0	0	0	0	503	514	0	348	38	0	
14	0	0	0	0	510	513	0	379	38	0	
15	0	0	0	0	508	513	0	421	38	0	
0	0	0	0	0	511	513	1	466	38	0	
1	0	0	0	0	510	513	0	508	38	0	
2	0	0	0	0	510	512	0	553	38	0	
3	0	0	0	0	506	512	0	581	38	0	
4	0	0	0	0	511	512	0	579	38	0	
5	0	0	0	0	502	514	0	557	38	0	
6	0	0	0	0	510	512	0	516	38	0	
7	0	0	0	0	507	513	0	462	38	0	
8	0	0	0	0	512	513	1	393	38	0	
9	0	0	0	0	514	512	0	322	38	0	
10	0	0	0	0	509	511	0	258	38	0	
11	0	0	0	0	513	511	0	210	38	0	
12	0	0	0	0	516	512	1	198	38	0	
13	0	0	0	0	516	512	0	221	38	0	
14	0	0	0	0	505	513	0	275	38	0	
15	0	0	0	0	507	514	0	345	38	0	
0	0	0	0	0	514	515	1	408	38	0	
1	0	0	0	0	511	512	0	475	38	0	
2	0	0	0	0	515	510	0	550	38	0	
3	0	0	0	0	510	511	0	621	38	0	
4	0	0	0	0	506	510	0	662	38	0	
5	0	0	0	0	510	510	0	681	38	0	
6	0	0	0	0	510	511	0	682	38	0	
7	0	0	0	0	504	513	0	675	38	0	
8	0	0	0	0	511	513	1	668	38	0	
9	0	0	0	0	505	513	0	664	38	0	
10	0	0	0	0	512	512	0	655	38	0	
11	0	0	0	0	510	512	0	664	38	0	
12	0	0	0	0	511	511	0	692	38	0	
13	0	0	0	0	519	512	0	726	38	0	
14	0	0	0	0	511	513	0	752	38	0	
15	0	0	0	0	509	513	0	765	38	0	
0	0	0	0	0	508	515	1	766	38	0	
1	0	0	0	0	511	514	0	767	38	0	
2	0	0	0	0	510	515	0	775	38	0	
3	0	0	0	0	505	517	0	797	38	0	
4	0	0	0	0	508	512	1	829	38	0	
5	0	0	0	0	511	513	0	871	38	0	
6	0	0	0	0	510	514	0	905	38	0	
7	0	0	0	0	509	515	0	945	38	0	
8	0	0	0	0	505	512	0	987	38	0	
9	0	0	0	0	511	511	0	1018	38	0	
10	0	0	0	0	514	513	0	1018	38	0	
11	0	0	0	0	505	515	0	1018	38	0	
12	0	0	0	0	518	515	1	1018	38	0	
13	0	0	0	0	506	515	0	1018	38	0	
14	0	0	0	0	509	515	0	1018	38	0	
15	0	0	0	0	516	515	0	1018	38	0	
0	0	0	0	0	514	514	1	1019	38	0	
1	0	0	0	0	512	513	0	1018	38	0	
2	0	0	0	0	512	513	0	1018	38	0	
3	0	0	0	0	511	515	0	1018	38	0	
4	0	0	0	0	510	514	1	1018	38	0	
5	0	0	0	0	509	512	0	1018	38	0	
6	0	0	0	0	515	514	0	1018	38	0	
7	0	0	0	0	512	512	0	1018	38	0	
8	0	0	0	0	508	513	1	970	38	0	
9	0	0	0	0	508	515	0	957	38	0	
10	0	0	0	0	507	515	0	958	38	0	
11	0	0	0	0	506	515	0	958	38	0	
12	0	0	0	0	512	515	1	951	38	0	
13	0	0	0	0	510	514	0	925	38	0	
14	0	0	0	0	508	514	0	886	38	0	
15	0	0	0	0	514	515	0	840	38	0	
0	0	0	0	0	512	515	1	798	38	0	
1	0	0	0	0	509	515	0	771	38	0	
2	0	0	0	0	513	514	0	760	38	0	
3	0	0	0	0	513	513	0	760	38	0	
4	0	0	0	0	507	514	1	767	38	0	
5	0	0	0	0	502	513	0	775	38	0	
6	0	0	0	0	511	512	0	780	38	0	
7	0	0	0	0	508	512	0	777	38	0	
8	0	0	0	0	510	512	1	764	38	0	
9	0	0	0	0	513	511	0	756	38	0	
10	0	0	0	0	507	511	0	759	38	0	
11	0	0	0	0	507	515	0	763	38	0	
12	0	0	0	0	506	515	1	766	38	0	
13	0	0	0	0	513	514	0	762	38	0	
14	0	0	0	0	508	512	0	751	38	0	
15	0	0	0	0	511	512	0	745	38	0	
0	0	0	0	0	517	510	1	751	38	0	
1	0	0	0	0	508	509	0	752	38	0	
2	0	0	0	0	508	511	0	745	38	0	
3	0	0	0	0	510	511	0	731	38	0	
4	0	0	0	0	516	510	0	715	38	0	
5	0	0	0	0	516	510	0	692	38	0	
6	0	0	0	0	512	510	0	644	38	0	
7	0	0	0	0	509	510	0	576	38	0	
8	0	0	0	0	505	510	0	517	38	0	
9	0	0	0	0	506	508	0	502	38	0	
10	0	0	0	0	508	509	0	531	38	0	
11	0	0	0	0	513	511	0	584	38	0	
12	0	0	0	0	508	512	1	640	38	0	
13	0	0	0	0	507	512	0	686	38	0	
14	0	0	0	0	511	512	0	731	38	0	
15	0	0	0	0	513	512	0	771	38	0	
0	0	0	0	0	507	514	1	806	38	0	
1	0	0	0	0	508	512	0	835	38	0	
2	0	0	0	0	510	512	0	847	38	0	
3	0	0	0	0	509	513	0	837	38	0	
4	0	0	0	0	506	515	1	819	38	0	
5	0	0	0	0	512	512	0	806	38	0	
6	0	0	0	0	518	513	0	792	38	0	
7	0	0	0	0	515	512	0	771	38	0	
8	0	0	0	0	505	512	1	743	38	0	
9	0	0	0	0	508	512	0	720	38	0	
10	0	0	0	0	507	513	0	704	38	0	
11	0	0	0	0	514	514	0	696	38	0	
12	0	0	0	0	507	515	1	684	38	0	
13	0	0	0	0	505	512	0	668	38	0	
14	0	0	0	0	506	512	0	647	38	0	
15	0	0	0	0	511	511	0	641	38	0	
0	0	0	0	0	512	511	1	638	38	0	
1	0	0	0	0	510	508	0	655	38	0	
2	0	0	0	0	510	508	0	681	38	0	
3	0	0	0	0	514	510	0	721	38	0	
4	0	0	0	0	512	510	1	756	38	0	
5	0	0	0	0	510	511	0	783	38	0	
6	0	0	0	0	512	511	0	799	39	0	
7	0	0	0	0	505	513	0	801	39	0	
8	0	0	0	0	508	513	0	784	38	0	
9	0	0	0	0	511	513	0	762	38	0	
10	0	0	0	0	515	514	0	743	38	0	
11	0	0	0	0	511	513	0	732	38	0	
12	0	0	0	0	512	515	1	729	38	0	
13	0	0	0	0	513	512	0	729	38	0	
14	0	0	0	0	506	514	0	723	38	0	
15	0	0	0	0	512	515	0	715	38	0	
0	0	0	0	0	511	513	1	718	38	0	
1	0	0	0	0	510	512	0	721	38	0	
2	0	0	0	0	510	512	0	721	38	0	
3	0	0	0	0	507	514	0	711	38	0	
4	0	0	0	0	506	512	1	707	38	0	
5	0	0	0	0	512	513	0	717	38	0	
6	0	0	0	0	509	513	0	732	38	0	
7	0	0	0	0	512	511	0	749	38	0	
8	0	0	0	0	512	512	1	754	38	0	
9	0	0	0	0	508	512	0	750	38	0	
10	0	0	0	0	508	513	0	743	38	0	
11	0	0	0	0	517	513	0	734	38	0	
12	0	0	0	0	506	515	1	722	38	0	
13	0	0	0	0	508	515	0	710	38	0	
14	0	0	0	0	511	515	0	696	38	0	
15	0	0	0	0	509	515	0	680	38	0	
0	0	0	0	0	508	515	1	663	38	0	
1	0	0	0	0	506	514	0	652	38	0	
2	0	0	0	0	509	513	0	643	38	0	
3	0	0	0	0	507	514	0	645	38	0	
4	0	0	0	0	510	513	0	645	38	0	
5	0	0	0	0	510	513	0	643	38	0	
6	0	0	0	0	512	515	0	643	38	0	
7	0	0	0	0	513	513	0	641	38	0	
8	0	0	0	0	516	512	0	632	38	0	
9	0	0	0	0	517	512	0	623	38	0	
10	0	0	0	0	503	511	0	615	38	0	
11	0	0	0	0	503	511	0	618	38	0	
12	0	0	0	0	510	510	1	628	38	0	
13	0	0	0	0	515	509	0	652	38	0	
14	0	0	0	0	509	511	0	673	38	0	
15	0	0	0	0	510	514	0	694	38	0	
0	0	0	0	0	507	513	1	691	38	0	
1	0	0	0	0	502	512	0	700	38	0	
2	0	0	0	0	505	514	0	705	38	0	
3	0	0	0	0	509	514	0	719	38	0	
4	0	0	0	0	516	514	1	700	38	0	
5	0	0	0	0	515	514	0	700	38	0	
6	0	0	0	0	510	514	0	699	38	0	
7	0	0	0	0	512	515	0	693	38	0	
8	0	0	0	0	509	512	0	688	39	0	
9	0	0	0	0	517	513	0	685	38	0	
10	0	0	0	0	510	514	0	681	38	0	
11	0	0	0	0	511	514	0	676	38	0	
12	0	0	0	0	506	513	1	665	38	0	
13	0	0	0	0	508	512	0	668	38	0	
14	0	0	0	0	515	512	0	654	38	0	
15	0	0	0	0	512	513	0	649	38	0	
0	0	0	0	0	504	513	1	647	38	0	
1	0	0	0	0	510	511	0	643	38	0	
2	0	0	0	0	508	511	0	636	38	0	
3	0	0	0	0	505	511	0	629	38	0	
4	0	0	0	0	510	512	1	628	38	0	
5	0	0	0	0	515	511	0	632	38	0	
6	0	0	0	0	516	512	0	641	38	0	
7	0	0	0	0	504	513	0	654	38	0	
8	0	0	0	0	505	512	0	670	37	0	
9	0	0	0	0	510	514	0	685	37	0	
10	0	0	0	0	505	514	0	694	38	0	
11	0	0	0	0	512	513	0	698	38	0	
12	0	0	0	0	508	513	0	694	38	0	
13	0	0	0	0	512	514	0	687	38	0	
14	0	0	0	0	518	513	0	683	38	0	
15	0	0	0	0	518	514	0	679	38	0	
0	0	0	0	0	511	514	0	675	38	0	
1	0	0	0	0	504	513	0	665	38	0	
2	0	0	0	0	509	514	0	652	38	0	
3	0	0	0	0	505	515	0	638	38	0	
4	0	0	0	0	510	515	1	621	39	0	
5	0	0	0	0	512	515	0	612	38	0	
6	0	0	0	0	513	515	0	604	39	0	
7	0	0	0	0	510	517	0	597	38	0	
8	0	0	0	0	512	516	1	604	38	0	
9	0	0	0	0	511	514	0	636	38	0	
10	0	0	0	0	506	516	0	660	38	0	
11	0	0	0	0	504	514	0	666	38	0	
12	0	0	0	0	510	515	1	675	38	0	
13	0	0	0	0	511	515	0	682	38	0	
14	0	0	0	0	516	516	0	673	38	0	
15	0	0	0	0	507	515	0	655	38	0	
0	0	0	0	0	508	513	1	626	38	0	
1	0	0	0	0	511	513	0	608	38	0	
2	0	0	0	0	510	513	0	596	38	0	
3	0	0	0	0	508	512	0	599	38	0	
4	0	0	0	0	514	511	0	597	38	0	
5	0	0	0	0	511	513	0	604	38	0	
6	0	0	0	0	511	512	0	605	38	0	
7	0	0	0	0	510	512	0	591	38	0	
8	0	0	0	0	514	513	0	575	38	0	
9	0	0	0	0	504	512	0	571	38	0	
10	0	0	0	0	513	512	0	574	38	0	
11	0	0	0	0	513	514	0	583	38	0	
12	0	0	0	0	507	512	0	600	38	0	
13	0	0	0	0	507	512	0	616	38	0	
14	0	0	0	0	510	512	0	624	38	0	
15	0	0	0	0	504	512	0	630	38	0	
0	0	0	0	0	509	510	0	630	38	0	
1	0	0	0	0	508	508	0	626	38	0	
2	0	0	0	0	509	510	0	619	38	0	
3	0	0	0	0	513	509	0	619	38	0	
4	0	0	0	0	507	508	0	624	38	0	
5	0	0	0	0	510	508	0	632	38	0	
6	0	0	0	0	511	509	0	649	38	0	
7	0	0	0	0	511	509	0	652	39	0	
8	0	0	0	0	513	510	1	645	39	0	
9	0	0	0	0	505	510	0	632	39	0	
10	0	0	0	0	511	511	0	612	39	0	
11	0	0	0	0	512	510	0	588	39	0	
12	0	0	0	0	506	509	1	566	39	0	
13	0	0	0	0	507	509	0	543	39	0	
14	0	0	0	0	513	509	0	521	38	0	
15	0	0	0	0	512	510	0	504	38	0	
0	0	0	0	0	504	509	0	489	38	0	
1	0	0	0	0	516	510	0	480	38	0	
2	0	0	0	0	513	510	0	479	38	0	
3	0	0	0	0	510	511	0	479	38	0	
4	0	0	0	0	513	512	1	480	38	0	
5	0	0	0	0	516	511	0	490	38	0	
6	0	0	0	0	515	511	0	502	38	0	
7	0	0	0	0	508	513	0	512	38	0	
8	0	0	0	0	508	513	1	521	38	0	
9	0	0	0	0	506	511	0	534	38	0	
10	0	0	0	0	513	511	0	541	38	0	
11	0	0	0	0	513	512	0	548	39	0	
12	0	0	0	0	506	510	1	557	39	0	
13	0	0	0	0	511	510	0	563	39	0	
14	0	0	0	0	509	510	0	567	39	0	
15	0	0	0	0	512	511	0	571	39	0	
0	0	0	0	0	509	513	1	580	38	0	
1	0	0	0	0	513	512	0	583	38	0	
2	0	0	0	0	512	513	0	584	38	0	
3	0	0	0	0	509	513	0	584	38	0	
4	0	0	0	0	507	511	0	584	38	0	
5	0	0	0	0	506	510	0	596	38	0	
6	0	0	0	0	509	510	0	613	38	0	
7	0	0	0	0	509	512	0	624	38	0	
8	0	0	0	0	507	513	1	628	38	0	
9	0	0	0	0	512	512	0	624	38	0	
10	0	0	0	0	511	510	0	611	38	0	
11	0	0	0	0	510	513	0	600	38	0	
12	0	0	0	0	508	511	1	585	38	0	
13	0	0	0	0	508	511	0	577	38	0	
14	0	0	0	0	510	511	0	577	38	0	
15	0	0	0	0	509	511	0	578	38	0	
0	0	0	0	0	513	512	1	575	38	0	
1	0	0	0	0	507	511	0	570	38	0	
2	0	0	0	0	508	511	0	572	38	0	
3	0	0	0	0	511	511	0	580	38	0	
4	0	0	0	0	522	511	1	590	38	0	
5	0	0	0	0	506	513	0	603	38	0	
6	0	0	0	0	511	515	0	608	38	0	
7	0	0	0	0	509	514	0	604	38	0	
8	0	0	0	0	510	514	1	591	38	0	
9	0	0	0	0	510	513	0	583	38	0	
10	0	0	0	0	516	514	0	575	38	0	
11	0	0	0	0	511	514	0	568	38	0	
12	0	0	0	0	509	513	1	561	38	0	
13	0	0	0	0	510	512	0	553	38	0	
14	0	0	0	0	510	513	0	535	38	0	
15	0	0	0	0	511	513	0	513	38	0	
0	0	0	0	0	517	513	1	493	38	0	
1	0	0	0	0	501	511	0	481	38	0	
2	0	0	0	0	508	511	0	481	38	0	
3	0	0	0	0	511	511	0	487	38	0	
4	0	0	0	0	510	512	1	493	38	0	
5	0	0	0	0	508	510	0	508	38	0	
6	0	0	0	0	512	511	0	525	38	0	
7	0	0	0	0	511	512	0	539	38	0	
8	0	0	0	0	514	512	1	524	38	0	
9	0	0	0	0	509	511	0	502	38	0	
10	0	0	0	0	511	511	0	496	38	0	
11	0	0	0	0	511	512	0	506	38	0	
12	0	0	0	0	504	510	1	530	38	0	
13	0	0	0	0	513	508	0	559	38	0	
14	0	0	0	0	510	509	0	584	38	0	
15	0	0	0	0	508	510	0	603	38	0	
0	0	0	0	0	512	510	1	608	38	0	
1	0	0	0	0	514	510	0	609	38	0	
2	0	0	0	0	511	510	0	605	38	0	
3	0	0	0	0	511	511	0	600	38	0	
4	0	0	0	0	508	511	1	611	38	0	
5	0	0	0	0	516	511	0	611	38	0	
6	0	0	0	0	511	512	0	621	38	0	
7	0	0	0	0	504	511	0	616	38	0	
8	0	0	0	0	508	511	1	594	38	0	
9	0	0	0	0	508	511	0	575	38	0	
10	0	0	0	0	516	511	0	563	38	0	
11	0	0	0	0	511	513	0	557	38	0	
12	0	0	0	0	508	512	1	556	38	0	
13	0	0	0	0	510	512	0	556	38	0	
14	0	0	0	0	504	513	0	557	38	0	
15	0	0	0	0	508	513	0	558	38	0	
0	0	0	0	0	511	512	1	561	38	0	
1	0	0	0	0	507	509	0	558	38	0	
2	0	0	0	0	506	509	0	547	38	0	
3	0	0	0	0	505	511	0	529	38	0	
4	0	0	0	0	513	512	1	511	38	0	
5	0	0	0	0	516	513	0	495	38	0	
6	0	0	0	0	513	513	0	486	38	0	
7	0	0	0	0	511	513	0	491	38	0	
8	0	0	0	0	511	511	1	499	38	0	
9	0	0	0	0	510	511	0	500	38	0	
10	0	0	0	0	514	511	0	499	38	0	
11	0	0	0	0	506	512	0	494	38	0	
12	0	0	0	0	508	513	1	490	38	0	
13	0	0	0	0	512	515	0	496	39	0	
14	0	0	0	0	509	514	0	509	39	0	
15	0	0	0	0	514	512	0	513	38	0	
0	0	0	0	0	507	510	1	508	38	0	
1	0	0	0	0	511	509	0	510	38	0	
2	0	0	0	0	511	508	0	514	38	0	
3	0	0	0	0	515	508	0	513	38	0	
4	0	0	0	0	508	510	0	507	38	0	
5	0	0	0	0	512	510	0	498	38	0	
6	0	0	0	0	512	510	0	493	38	0	
7	0	0	0	0	512	511	0	499	38	0	
8	0	0	0	0	512	509	0	513	38	0	
9	0	0	0	0	515	511	0	526	38	0	
10	0	0	0	0	507	512	0	529	38	0	
11	0	0	0	0	510	512	0	525	38	0	
12	0	0	0	0	512	511	0	522	38	0	
13	0	0	0	0	505	512	0	523	38	0	
14	0	0	0	0	502	513	0	531	38	0	
15	0	0	0	0	504	512	0	539	39	0	
0	0	0	0	0	510	512	1	543	38	0	
1	0	0	0	0	512	511	0	547	38	0	
2	0	0	0	0	507	511	0	559	38	0	
3	0	0	0	0	511	511	0	566	38	0	
4	0	0	0	0	513	511	1	565	38	0	
5	0	0	0	0	511	510	0	563	39	0	
6	0	0	0	0	511	510	0	561	39	0	
7	0	0	0	0	515	513	0	575	38	0	
8	0	0	0	0	513	512	1	595	39	0	
9	0	0	0	0	506	512	0	617	38	0	
10	0	0	0	0	506	511	0	641	38	0	
11	0	0	0	0	510	511	0	665	38	0	
12	0	0	0	0	508	511	1	680	38	0	
13	0	0	0	0	506	509	0	679	38	0	
14	0	0	0	0	515	508	0	670	38	0	
15	0	0	0	0	516	509	0	662	38	0	
0	0	0	0	0	509	508	0	654	38	0	
1	0	0	0	0	515	508	0	647	38	0	
2	0	0	0	0	515	510	0	633	38	0	
3	0	0	0	0	509	511	0	604	38	0	
4	0	0	0	0	509	509	1	554	38	0	
5	0	0	0	0	509	510	0	500	38	0	
6	0	0	0	0	511	510	0	457	38	0	
7	0	0	0	0	505	510	0	438	38	0	
8	0	0	0	0	510	510	1	432	38	0	
9	0	0	0	0	507	510	0	427	38	0	
10	0	0	0	0	507	510	0	429	38	0	
11	0	0	0	0	512	510	0	435	38	0	
12	0	0	0	0	512	511	1	443	38	0	
13	0	0	0	0	514	510	0	456	38	0	
14	0	0	0	0	514	514	0	476	38	0	
15	0	0	0	0	508	514	0	496	38	0	
0	0	0	0	0	512	513	0	515	38	0	
1	0	0	0	0	507	513	0	531	38	0	
2	0	0	0	0	509	514	0	550	38	0	
3	0	0	0	0	505	515	0	561	38	0	
4	0	0	0	0	506	514	0	559	38	0	
5	0	0	0	0	505	514	0	548	38	0	
6	0	0	0	0	507	514	0	542	38	0	
7	0	0	0	0	513	516	0	540	38	0	
8	0	0	0	0	519	515	1	527	38	0	
9	0	0	0	0	509	512	0	533	38	0	
10	0	0	0	0	505	514	0	561	38	0	
11	0	0	0	0	508	513	0	559	38	0	
12	0	0	0	0	514	515	1	567	38	0	
13	0	0	0	0	518	512	0	581	38	0	
14	0	0	0	0	504	514	0	591	38	0	
15	0	0	0	0	509	515	0	607	38	0	
0	0	0	0	0	513	513	0	621	38	0	
1	0	0	0	0	508	513	0	631	38	0	
2	0	0	0	0	507	513	0	633	38	0	
3	0	0	0	0	505	514	0	616	38	0	
4	0	0	0	0	517	515	1	581	38	0	
5	0	0	0	0	508	513	0	557	38	0	
6	0	0	0	0	511	511	0	550	38	0	
7	0	0	0	0	504	510	0	556	38	0	
8	0	0	0	0	511	509	0	563	38	0	
9	0	0	0	0	507	508	0	580	38	0	
10	0	0	0	0	514	511	0	611	38	0	
11	0	0	0	0	516	511	0	643	38	0	
12	0	0	0	0	508	510	0	677	38	0	
13	0	0	0	0	509	509	0	694	38	0	
14	0	0	0	0	506	510	0	686	38	0	
15	0	0	0	0	510	510	0	665	38	0	
0	0	0	0	0	508	509	0	651	38	0	
1	0	0	0	0	503	510	0	650	38	0	
2	0	0	0	0	513	511	0	652	38	0	
3	0	0	0	0	504	511	0	648	38	0	
4	0	0	0	0	515	512	0	644	38	0	
5	0	0	0	0	515	512	0	644	38	0	
6	0	0	0	0	510	512	0	653	38	0	
7	0	0	0	0	507	513	0	664	38	0	
8	0	0	0	0	512	512	1	677	38	0	
9	0	0	0	0	502	511	0	692	38	0	
10	0	0	0	0	514	512	0	686	38	0	
11	0	0	0	0	511	512	0	678	38	0	
12	0	0	0	0	511	509	0	671	38	0	
13	0	0	0	0	518	509	0	661	38	0	
14	0	0	0	0	510	509	0	653	38	0	
15	0	0	0	0	507	510	0	642	38	0	
0	0	0	0	0	512	510	1	627	38	0	
1	0	0	0	0	513	508	0	617	38	0	
2	0	0	0	0	511	509	0	614	38	0	
3	0	0	0	0	505	509	0	627	38	0	
4	0	0	0	0	509	510	1	652	38	0	
5	0	0	0	0	507	510	0	667	38	0	
6	0	0	0	0	512	511	0	662	38	0	
7	0	0	0	0	506	510	0	642	38	0	
8	0	0	0	0	513	511	1	620	38	0	
9	0	0	0	0	516	510	0	601	38	0	
10	0	0	0	0	510	509	0	586	38	0	
11	0	0	0	0	501	508	0	567	38	0	
12	0	0	0	0	511	508	0	551	38	0	
13	0	0	0	0	512	509	0	546	38	0	
14	0	0	0	0	511	509	0	552	38	0	
15	0	0	0	0	508	510	0	567	38	0	
0	0	0	0	0	515	511	0	583	38	0	
1	0	0	0	0	513	511	0	592	38	0	
2	0	0	0	0	511	511	0	598	38	0	
3	0	0	0	0	507	512	0	605	38	0	
4	0	0	0	0	506	510	0	605	38	0	
5	0	0	0	0	510	511	0	596	38	0	
6	0	0	0	0	512	512	0	589	38	0	
7	0	0	0	0	504	513	0	583	39	0	
8	0	0	0	0	508	514	1	575	38	0	
9	0	0	0	0	511	514	0	564	38	0	
10	0	0	0	0	513	514	0	556	38	0	
11	0	0	0	0	517	515	0	560	38	0	
12	0	0	0	0	504	516	1	571	38	0	
13	0	0	0	0	513	513	0	577	38	0	
14	0	0	0	0	512	514	0	578	38	0	
15	0	0	0	0	512	514	0	582	39	0	
0	0	0	0	0	517	514	1	587	38	0	
1	0	0	0	0	510	513	0	600	38	0	
2	0	0	0	0	513	514	0	620	38	0	
3	0	0	0	0	508	514	0	633	38	0	
4	0	0	0	0	505	512	1	634	38	0	
5	0	0	0	0	512	510	0	628	38	0	
6	0	0	0	0	513	510	0	615	38	0	
7	0	0	0	0	513	510	0	588	38	0	
8	0	0	0	0	511	511	1	556	39	0	
9	0	0	0	0	504	511	0	520	38	0	
10	0	0	0	0	499	510	0	484	38	0	
11	0	0	0	0	515	510	0	461	38	0	
12	0	0	0	0	513	512	1	440	38	0	
13	0	0	0	0	507	511	0	427	38	0	
14	0	0	0	0	511	511	0	425	38	0	
15	0	0	0	0	505	512	0	430	39	0	
0	0	0	0	0	513	510	0	437	38	0	
1	0	0	0	0	507	509	0	433	38	0	
2	0	0	0	0	512	511	0	426	38	0	
3	0	0	0	0	512	512	0	423	38	0	
4	0	0	0	0	505	512	0	417	38	0	
5	0	0	0	0	515	512	0	416	38	0	
6	0	0	0	0	511	513	0	402	38	0	
7	0	0	0	0	515	511	0	377	38	0	
8	0	0	0	0	511	511	0	346	38	0	
9	0	0	0	0	507	509	0	330	38	0	
10	0	0	0	0	508	509	0	325	38	0	
11	0	0	0	0	506	510	0	322	38	0	
12	0	0	0	0	508	510	1	318	38	0	
13	0	0	0	0	511	511	0	312	38	0	
14	0	0	0	0	514	511	0	301	38	0	
15	0	0	0	0	508	510	0	275	38	0	
0	0	0	0	0	511	511	0	245	38	0	
1	0	0	0	0	505	511	0	217	38	0	
2	0	0	0	0	501	513	0	184	38	0	
3	0	0	0	0	519	512	0	148	38	0	
4	0	0	0	0	510	512	0	120	38	0	
5	0	0	0	0	509	511	0	104	38	0	
6	0	0	0	0	511	512	0	91	38	0	
7	0	0	0	0	509	512	0	75	38	0	
8	0	0	0	0	510	511	1	63	38	0	
9	0	0	0	0	512	509	0	57	38	0	
10	0	0	0	0	508	510	0	55	38	0	
11	0	0	0	0	516	511	0	58	38	0	
12	0	0	0	0	508	510	1	57	38	0	
13	0	0	0	0	508	508	0	57	38	0	
14	0	0	0	0	509	510	0	60	38	0	
15	0	0	0	0	505	511	0	65	38	0	
0	0	0	0	0	510	512	1	75	38	0	
1	0	0	0	0	518	511	0	89	38	0	
2	0	0	0	0	504	511	0	97	38	0	
3	0	0	0	0	510	513	0	101	38	0	
4	0	0	0	0	504	510	0	95	38	0	
5	0	0	0	0	515	512	0	78	38	0	
6	0	0	0	0	514	512	0	59	38	0	
7	0	0	0	0	511	511	0	42	38	0	
8	0	0	0	0	514	512	0	27	38	0	
9	0	0	0	0	518	512	0	21	38	0	
10	0	0	0	0	499	511	0	27	38	0	
11	0	0	0	0	508	510	0	29	38	0	
12	0	0	0	0	510	510	0	29	38	0	
13	0	0	0	0	508	511	0	25	38	0	
14	0	0	0	0	515	514	0	24	38	0	
15	0	0	0	0	508	514	0	25	38	0	
0	0	0	0	0	512	513	0	30	38	0	
1	0	0	0	0	515	512	0	36	38	0	
2	0	0	0	0	505	513	0	60	38	0	
3	0	0	0	0	510	514	0	90	38	0	
4	0	0	0	0	505	512	0	113	38	0	
5	0	0	0	0	512	512	0	133	38	0	
6	0	0	0	0	514	513	0	153	38	0	
7	0	0	0	0	508	514	0	171	38	0	
8	0	0	0	0	509	515	1	148	38	0	
9	0	0	0	0	513	514	0	115	38	0	
10	0	0	0	0	516	514	0	71	38	0	
11	0	0	0	0	515	512	0	51	38	0	
12	0	0	0	0	504	512	1	60	38	0	
13	0	0	0	0	504	512	0	85	38	0	
14	0	0	0	0	513	512	0	110	38	0	
15	0	0	0	0	505	513	0	143	38	0	
0	0	0	0	0	506	511	0	173	38	0	
1	0	0	0	0	507	511	0	202	38	0	
2	0	0	0	0	516	512	0	226	38	0	
3	0	0	0	0	508	513	0	249	38	0	
4	0	0	0	0	517	512	0	278	38	0	
5	0	0	0	0	508	512	0	302	38	0	
6	0	0	0	0	507	512	0	317	38	0	
7	0	0	0	0	509	514	0	320	38	0	
8	0	0	0	0	513	515	1	310	38	0	
9	0	0	0	0	506	513	0	292	38	0	
10	0	0	0	0	510	513	0	275	38	0	
11	0	0	0	0	514	511	0	257	38	0	
12	0	0	0	0	514	513	1	242	38	0	
13	0	0	0	0	508	513	0	243	38	0	
14	0	0	0	0	504	514	0	248	38	0	
15	0	0	0	0	513	516	0	253	38	0	
0	0	0	0	0	504	516	1	259	38	0	
1	0	0	0	0	509	514	0	279	38	0	
2	0	0	0	0	510	515	0	304	38	0	
3	0	0	0	0	509	515	0	325	38	0	
4	0	0	0	0	517	515	1	337	38	0	
5	0	0	0	0	508	512	0	345	38	0	
6	0	0	0	0	515	512	0	347	38	0	
7	0	0	0	0	515	513	0	346	38	0	
8	0	0	0	0	505	513	1	337	38	0	
9	0	0	0	0	511	513	0	329	38	0	
10	0	0	0	0	506	513	0	323	38	0	
11	0	0	0	0	509	515	0	319	38	0	
12	0	0	0	0	517	513	1	314	38	0	
13	0	0	0	0	505	513	0	307	38	0	
14	0	0	0	0	510	512	0	292	38	0	
15	0	0	0	0	510	511	0	274	38	0	
0	0	0	0	0	508	511	0	257	38	0	
1	0	0	0	0	515	510	0	249	38	0	
2	0	0	0	0	511	512	0	250	38	0	
3	0	0	0	0	509	511	0	257	38	0	
4	0	0	0	0	509	511	0	269	38	0	
5	0	0	0	0	515	513	0	285	38	0	
6	0	0	0	0	512	512	0	291	38	0	
7	0	0	0	0	509	512	0	294	39	0	
8	0	0	0	0	516	514	1	300	38	0	
9	0	0	0	0	502	512	0	300	38	0	
10	0	0	0	0	511	512	0	299	38	0	
11	0	0	0	0	517	512	0	294	38	0	
12	0	0	0	0	513	511	0	282	38	0	
13	0	0	0	0	516	510	0	271	38	0	
14	0	0	0	0	511	511	0	272	38	0	
15	0	0	0	0	505	510	0	283	38	0	
0	0	0	0	0	505	508	1	294	38	0	
1	0	0	0	0	506	508	0	317	38	0	
2	0	0	0	0	504	509	0	340	38	0	
3	0	0	0	0	509	510	0	352	38	0	
4	0	0	0	0	508	509	0	353	38	0	
5	0	0	0	0	513	510	0	351	38	0	
6	0	0	0	0	516	512	0	352	38	0	
7	0	0	0	0	515	510	0	352	39	0	
8	0	0	0	0	516	510	0	351	38	0	
9	0	0	0	0	507	510	0	342	38	0	
10	0	0	0	0	507	512	0	329	38	0	
11	0	0	0	0	505	513	0	318	38	0	
12	0	0	0	0	507	512	0	304	38	0	
13	0	0	0	0	508	511	0	289	38	0	
14	0	0	0	0	516	511	0	273	38	0	
15	0	0	0	0	512	512	0	259	38	0	
0	0	0	0	0	509	511	0	251	38	0	
1	0	0	0	0	509	511	0	252	38	0	
2	0	0	0	0	503	510	0	257	38	0	
3	0	0	0	0	510	509	0	263	38	0	
4	0	0	0	0	503	510	1	275	38	0	
5	0	0	0	0	518	508	0	272	38	0	
6	0	0	0	0	508	510	0	267	38	0	
7	0	0	0	0	515	509	0	255	38	0	
8	0	0	0	0	511	511	1	238	38	0	
9	0	0	0	0	506	510	0	219	38	0	
10	0	0	0	0	511	509	0	213	38	0	
11	0	0	0	0	509	508	0	214	38	0	
12	0	0	0	0	508	508	0	216	38	0	
13	0	0	0	0	512	508	0	213	38	0	
14	0	0	0	0	513	510	0	199	38	0	
15	0	0	0	0	510	511	0	183	38	0	
0	0	0	0	0	512	511	1	180	38	0	
1	0	0	0	0	509	509	0	184	38	0	
2	0	0	0	0	514	510	0	214	38	0	
3	0	0	0	0	507	511	0	253	38	0	
4	0	0	0	0	508	512	1	290	38	0	
5	0	0	0	0	509	511	0	327	38	0	
6	0	0	0	0	507	512	0	356	38	0	
7	0	0	0	0	508	511	0	377	38	0	
8	0	0	0	0	508	512	1	384	38	0	
9	0	0	0	0	515	512	0	395	38	0	
10	0	0	0	0	513	511	0	411	38	0	
11	0	0	0	0	506	512	0	410	38	0	
12	0	0	0	0	505	511	1	395	38	0	
13	0	0	0	0	504	511	0	383	38	0	
14	0	0	0	0	515	510	0	379	38	0	
15	0	0	0	0	512	510	0	375	38	0	
0	0	0	0	0	513	510	1	362	38	0	
1	0	0	0	0	513	509	0	355	38	0	
2	0	0	0	0	510	510	0	359	38	0	
3	0	0	0	0	517	512	0	369	38	0	
4	0	0	0	0	510	510	1	370	38	0	
5	0	0	0	0	505	509	0	382	38	0	
6	0	0	0	0	508	511	0	388	38	0	
7	0	0	0	0	503	512	0	381	38	0	
8	0	0	0	0	515	512	1	369	38	0	
9	0	0	0	0	513	512	0	364	38	0	
10	0	0	0	0	510	512	0	367	38	0	
11	0	0	0	0	509	511	0	367	38	0	
12	0	0	0	0	513	512	0	356	38	0	
13	0	0	0	0	507	513	0	341	38	0	
14	0	0	0	0	511	512	0	326	38	0	
15	0	0	0	0	507	514	0	321	38	0	
0	0	0	0	0	516	517	1	309	38	0	
1	0	0	0	0	504	514	0	303	38	0	
2	0	0	0	0	497	513	0	296	38	0	
3	0	0	0	0	509	513	0	291	38	0	
4	0	0	0	0	513	513	1	298	38	0	
5	0	0	0	0	511	510	0	291	38	0	
6	0	0	0	0	505	510	0	305	38	0	
7	0	0	0	0	511	512	0	315	38	0	
8	0	0	0	0	508	512	1	321	38	0	
9	0	0	0	0	508	511	0	336	38	0	
10	0	0	0	0	510	512	0	356	38	0	
11	0	0	0	0	507	510	0	357	38	0	
12	0	0	0	0	516	509	1	338	38	0	
13	0	0	0	0	515	508	0	304	38	0	
14	0	0	0	0	512	509	0	272	38	0	
15	0	0	0	0	505	511	0	259	38	0	
0	0	0	0	0	510	512	1	261	38	0	
1	0	0	0	0	506	510	0	276	38	0	
2	0	0	0	0	511	511	0	294	38	0	
3	0	0	0	0	500	512	0	309	38	0	
4	0	0	0	0	514	512	1	310	38	0	
5	0	0	0	0	510	508	0	317	38	0	
6	0	0	0	0	510	509	0	324	38	0	
7	0	0	0	0	512	512	0	335	38	0	
8	0	0	0	0	515	511	1	342	38	0	
9	0	0	0	0	516	511	0	357	38	0	
10	0	0	0	0	505	512	0	373	38	0	
11	0	0	0	0	515	511	0	388	38	0	
12	0	0	0	0	508	511	0	405	38	0	
13	0	0	0	0	502	512	0	420	38	0	
14	0	0	0	0	513	512	0	429	38	0	
15	0	0	0	0	504	512	0	422	39	0	
0	0	0	0	0	516	512	0	406	38	0	
1	0	0	0	0	504	511	0	382	38	0	
2	0	0	0	0	510	512	0	364	38	0	
3	0	0	0	0	513	511	0	355	38	0	
4	0	0	0	0	509	509	1	348	39	0	
5	0	0	0	0	506	511	0	344	38	0	
6	0	0	0	0	505	511	0	348	39	0	
7	0	0	0	0	508	514	0	353	38	0	
8	0	0	0	0	516	512	0	354	38	0	
9	0	0	0	0	516	513	0	358	38	0	
10	0	0	0	0	506	514	0	371	39	0	
11	0	0	0	0	508	515	0	391	38	0	
12	0	0	0	0	507	517	0	415	38	0	
13	0	0	0	0	512	516	0	433	38	0	
14	0	0	0	0	511	515	0	452	38	0	
15	0	0	0	0	511	515	0	470	38	0	
0	0	0	0	0	503	514	1	485	38	0	
1	0	0	0	0	511	514	0	492	38	0	
2	0	0	0	0	515	513	0	504	38	0	
3	0	0	0	0	511	513	0	512	38	0	
4	0	0	0	0	516	511	1	513	38	0	
5	0	0	0	0	506	514	0	504	38	0	
6	0	0	0	0	510	514	0	496	38	0	
7	0	0	0	0	516	515	0	492	38	0	
8	0	0	0	0	513	513	1	494	38	0	
9	0	0	0	0	508	513	0	492	38	0	
10	0	0	0	0	512	512	0	486	38	0	
11	0	0	0	0	504	513	0	481	38	0	
12	0	0	0	0	507	511	1	476	38	0	
13	0	0	0	0	505	508	0	477	38	0	
14	0	0	0	0	506	509	0	479	38	0	
15	0	0	0	0	508	512	0	475	38	0	
0	0	0	0	0	514	512	0	462	38	0	
1	0	0	0	0	513	513	0	448	38	0	
2	0	0	0	0	515	514	0	439	38	0	
3	0	0	0	0	511	514	0	433	38	0	
4	0	0	0	0	502	515	1	431	38	0	
5	0	0	0	0	513	512	0	430	38	0	
6	0	0	0	0	518	511	0	436	38	0	
7	0	0	0	0	510	512	0	450	38	0	
8	0	0	0	0	507	512	1	455	38	0	
9	0	0	0	0	511	513	0	454	38	0	
10	0	0	0	0	508	513	0	445	38	0	
11	0	0	0	0	510	515	0	433	38	0	
12	0	0	0	0	510	514	1	423	38	0	
13	0	0	0	0	509	512	0	422	38	0	
14	0	0	0	0	508	512	0	433	38	0	
15	0	0	0	0	515	511	0	447	38	0	
0	0	0	0	0	511	511	0	456	38	0	
1	0	0	0	0	510	511	0	458	38	0	
2	0	0	0	0	512	512	0	451	38	0	
3	0	0	0	0	507	512	0	434	38	0	
4	0	0	0	0	518	513	1	427	38	0	
5	0	0	0	0	510	512	0	390	38	0	
6	0	0	0	0	507	512	0	351	38	0	
7	0	0	0	0	510	511	0	296	38	0	
8	0	0	0	0	505	511	1	261	38	0	
9	0	0	0	0	512	511	0	223	38	0	
10	0	0	0	0	510	511	0	206	38	0	
11	0	0	0	0	513	511	0	191	38	0	
12	0	0	0	0	513	513	1	177	38	0	
13	0	0	0	0	511	511	0	152	38	0	
14	0	0	0	0	508	512	0	129	38	0	
15	0	0	0	0	512	513	0	107	38	0	
0	0	0	0	0	508	511	0	81	38	0	
1	0	0	0	0	514	512	0	48	38	0	
2	0	0	0	0	513	514	0	11	38	0	
3	0	0	0	0	511	515	0	0	38	0	
4	0	0	0	0	509	516	1	0	38	0	
5	0	0	0	0	498	513	0	0	38	0	
6	0	0	0	0	514	513	0	0	38	0	
7	0	0	0	0	512	512	0	0	38	0	
8	0	0	0	0	508	508	0	0	38	0	
9	0	0	0	0	516	507	0	0	38	0	
10	0	0	0	0	507	510	0	0	38	0	
11	0	0	0	0	510	510	0	0	38	0	
12	0	0	0	0	508	511	1	0	38	0	
13	0	0	0	0	507	510	0	0	38	0	
14	0	0	0	0	512	511	0	0	38	0	
15	0	0	0	0	508	512	0	0	38	0	
0	0	0	0	0	511	511	0	0	38	0	
1	0	0	0	0	512	511	0	0	38	0	
2	0	0	0	0	513	512	0	0	38	0	
3	0	0	0	0	510	513	0	0	38	0	
4	0	0	0	0	503	511	0	0	38	0	
5	0	0	0	0	507	513	0	0	38	0	
6	0	0	0	0	513	515	0	0	38	0	
7	0	0	0	0	513	516	0	0	38	0	
8	0	0	0	0	507	515	0	0	38	0	
9	0	0	0	0	508	513	0	0	38	0	
10	0	0	0	0	509	512	0	0	38	0	
11	0	0	0	0	511	513	0	0	38	0	
12	0	0	0	0	513	513	1	0	38	0	
13	0	0	0	0	508	513	0	0	38	0	
14	0	0	0	0	513	512	0	0	38	0	
15	0	0	0	0	516	512	0	0	38	0	
0	0	0	0	0	509	514	1	0	38	0	
1	0	0	0	0	509	512	0	0	38	0	
2	0	0	0	0	517	512	0	0	38	0	
3	0	0	0	0	507	511	0	0	38	0	
4	0	0	0	0	505	508	0	0	38	0	
5	0	0	0	0	505	507	0	0	38	0	
6	0	0	0	0	512	508	0	0	38	0	
7	0	0	0	0	505	508	0	0	38	0	
8	0	0	0	0	506	508	1	0	38	0	
9	0	0	0	0	518	508	0	0	38	0	
10	0	0	0	0	513	508	0	0	38	0	
11	0	0	0	0	508	509	0	0	38	0	
12	0	0	0	0	508	509	1	0	38	0	
13	0	0	0	0	512	509	0	0	38	0	
14	0	0	0	0	513	510	0	0	39	0	
15	0	0	0	0	509	511	0	0	39	0	
0	0	0	0	0	506	511	0	0	38	0	
1	0	0	0	0	511	511	0	0	38	0	
2	0	0	0	0	506	512	0	0	38	0	
3	0	0	0	0	511	512	0	0	38	0	
4	0	0	0	0	508	512	1	0	38	0	
5	0	0	0	0	509	512	0	0	38	0	
6	0	0	0	0	506	511	0	0	38	0	
7	0	0	0	0	512	512	0	0	38	0	
8	0	0	0	0	505	512	0	0	38	0	
9	0	0	0	0	503	512	0	0	38	0	
10	0	0	0	0	513	512	0	0	38	0	
11	0	0	0	0	510	514	0	0	38	0	
12	0	0	0	0	508	512	1	0	38	0	
13	0	0	0	0	509	511	0	0	38	0	
14	0	0	0	0	507	513	0	0	38	0	
15	0	0	0	0	509	514	0	0	39	0	
0	0	0	0	0	512	514	1	0	38	0	
1	0	0	0	0	503	512	0	0	38	0	
2	0	0	0	0	509	511	0	0	38	0	
3	0	0	0	0	513	513	0	0	38	0	
4	0	0	0	0	508	513	1	0	38	0	
5	0	0	0	0	508	512	0	0	38	0	
6	0	0	0	0	516	512	0	0	38	0	
7	0	0	0	0	511	512	0	0	38	0	
8	0	0	0	0	510	513	1	0	38	0	
9	0	0	0	0	506	511	0	8	38	0	
10	0	0	0	0	509	511	0	7	38	0	
11	0	0	0	0	513	513	0	9	38	0	
12	0	0	0	0	516	512	1	21	38	0	
13	0	0	0	0	514	512	0	52	38	0	
14	0	0	0	0	509	511	0	84	38	0	
15	0	0	0	0	509	512	0	105	38	0	
0	0	0	0	0	507	513	1	103	38	0	
1	0	0	0	0	508	511	0	88	38	0	
2	0	0	0	0	510	511	0	79	38	0	
3	0	0	0	0	506	511	0	80	38	0	
4	0	0	0	0	506	512	1	72	38	0	
5	0	0	0	0	511	511	0	58	38	0	
6	0	0	0	0	513	511	0	51	38	0	
7	0	0	0	0	508	512	0	54	38	0	
8	0	0	0	0	510	512	0	54	38	0	
9	0	0	0	0	504	513	0	51	38	0	
10	0	0	0	0	508	514	0	49	38	0	
11	0	0	0	0	515	515	0	48	38	0	
12	0	0	0	0	510	515	1	54	38	0	
13	0	0	0	0	504	513	0	65	38	0	
14	0	0	0	0	513	512	0	74	38	0	
15	0	0	0	0	508	512	0	71	38	0	
0	0	0	0	0	517	511	0	63	38	0	
1	0	0	0	0	514	511	0	66	38	0	
2	0	0	0	0	514	512	0	78	38	0	
3	0	0	0	0	515	513	0	92	38	0	
4	0	0	0	0	507	513	1	105	38	0	
5	0	0	0	0	511	513	0	117	38	0	
6	0	0	0	0	507	511	0	126	38	0	
7	0	0	0	0	505	513	0	130	38	0	
8	0	0	0	0	515	514	1	128	38	0	
9	0	0	0	0	509	513	0	137	38	0	
10	0	0	0	0	512	513	0	144	38	0	
11	0	0	0	0	504	512	0	145	38	0	
12	0	0	0	0	509	513	1	150	38	0	
13	0	0	0	0	514	512	0	167	38	0	
14	0	0	0	0	509	513	0	195	38	0	
15	0	0	0	0	510	513	0	226	38	0	
0	0	0	0	0	506	511	0	259	38	0	
1	0	0	0	0	506	512	0	284	38	0	
2	0	0	0	0	508	513	0	303	38	0	
3	0	0	0	0	513	513	0	316	38	0	
4	0	0	0	0	510	514	1	323	38	0	
5	0	0	0	0	509	512	0	332	38	0	
6	0	0	0	0	512	513	0	330	38	0	
7	0	0	0	0	514	512	0	340	38	0	
8	0	0	0	0	508	510	0	352	38	0	
9	0	0	0	0	506	512	0	366	38	0	
10	0	0	0	0	506	512	0	382	38	0	
11	0	0	0	0	510	513	0	399	38	0	
12	0	0	0	0	512	515	0	415	38	0	
13	0	0	0	0	507	514	0	429	38	0	
14	0	0	0	0	515	513	0	434	38	0	
15	0	0	0	0	514	512	0	431	38	0	
0	0	0	0	0	507	514	1	431	38	0	
1	0	0	0	0	509	512	0	423	38	0	
2	0	0	0	0	509	512	0	423	38	0	
3	0	0	0	0	515	512	0	427	38	0	
4	0	0	0	0	518	513	1	425	38	0	
5	0	0	0	0	511	512	0	418	38	0	
6	0	0	0	0	517	513	0	411	38	0	
7	0	0	0	0	506	514	0	405	38	0	
8	0	0	0	0	506	512	1	399	38	0	
9	0	0	0	0	507	511	0	399	38	0	
10	0	0	0	0	513	512	0	405	38	0	
11	0	0	0	0	511	513	0	420	38	0	
12	0	0	0	0	511	512	1	433	38	0	
13	0	0	0	0	502	511	0	443	38	0	
14	0	0	0	0	505	511	0	450	38	0	
15	0	0	0	0	507	511	0	464	38	0	
0	0	0	0	0	515	512	0	479	38	0	
1	0	0	0	0	507	514	0	491	38	0	
2	0	0	0	0	508	513	0	502	38	0	
3	0	0	0	0	515	514	0	509	38	0	
4	0	0	0	0	515	511	0	516	38	0	
5	0	0	0	0	505	511	0	527	38	0	
6	0	0	0	0	510	513	0	545	38	0	
7	0	0	0	0	507	513	0	560	38	0	
8	0	0	0	0	509	513	0	570	38	0	
9	0	0	0	0	516	513	0	573	38	0	
10	0	0	0	0	511	515	0	568	38	0	
11	0	0	0	0	511	516	0	567	38	0	
12	0	0	0	0	512	515	0	562	39	0	
13	0	0	0	0	514	514	0	556	38	0	
14	0	0	0	0	505	512	0	555	39	0	
15	0	0	0	0	507	513	0	547	39	0	
0	0	0	0	0	518	514	1	536	39	0	
1	0	0	0	0	515	513	0	526	38	0	
2	0	0	0	0	510	513	0	519	38	0	
3	0	0	0	0	503	514	0	519	38	0	
4	0	0	0	0	516	513	1	520	38	0	
5	0	0	0	0	515	510	0	530	39	0	
6	0	0	0	0	509	511	0	541	39	0	
7	0	0	0	0	507	510	0	542	38	0	
8	0	0	0	0	514	512	1	540	39	0	
9	0	0	0	0	511	512	0	537	38	0	
10	0	0	0	0	514	513	0	540	38	0	
11	0	0	0	0	508	512	0	552	39	0	
12	0	0	0	0	514	512	1	560	38	0	
13	0	0	0	0	512	512	0	566	39	0	
14	0	0	0	0	507	516	0	568	38	0	
15	0	0	0	0	508	516	0	573	39	0	
0	0	0	0	0	508	514	0	580	39	0	
1	0	0	0	0	508	513	0	592	39	0	
2	0	0	0	0	506	513	0	598	39	0	
3	0	0	0	0	510	515	0	605	38	0	
4	0	0	0	0	510	513	0	610	39	0	
5	0	0	0	0	511	513	0	616	39	0	
6	0	0	0	0	512	512	0	615	39	0	
7	0	0	0	0	509	511	0	612	39	0	
8	0	0	0	0	502	514	1	603	39	0	
9	0	0	0	0	507	511	0	595	39	0	
10	0	0	0	0	513	512	0	591	39	0	
11	0	0	0	0	504	515	0	590	39	0	
12	0	0	0	0	511	515	1	587	38	0	
13	0	0	0	0	511	512	0	587	38	0	
14	0	0	0	0	513	511	0	590	38	0	
15	0	0	0	0	503	510	0	598	38	0	
0	0	0	0	0	518	508	0	612	38	0	
1	0	0	0	0	516	510	0	631	38	0	
2	0	0	0	0	519	511	0	647	38	0	
3	0	0	0	0	504	512	0	661	38	0	
4	0	0	0	0	505	513	0	677	39	0	
5	0	0	0	0	508	512	0	687	38	0	
6	0	0	0	0	514	511	0	695	38	0	
7	0	0	0	0	511	512	0	701	39	0	
8	0	0	0	0	511	512	1	706	38	0	
9	0	0	0	0	508	512	0	701	38	0	
10	0	0	0	0	507	511	0	684	38	0	
11	0	0	0	0	505	512	0	664	38	0	
12	0	0	0	0	513	513	1	655	38	0	
13	0	0	0	0	512	512	0	651	38	0	
14	0	0	0	0	514	513	0	648	38	0	
15	0	0	0	0	501	513	0	643	38	0	
0	0	0	0	0	504	514	1	644	38	0	
1	0	0	0	0	511	514	0	652	38	0	
2	0	0	0	0	513	512	0	664	38	0	
3	0	0	0	0	507	515	0	680	38	0	
4	0	0	0	0	511	516	1	691	38	0	
5	0	0	0	0	512	514	0	704	38	0	
6	0	0	0	0	504	514	0	713	38	0	
7	0	0	0	0	511	514	0	723	38	0	
8	0	0	0	0	510	514	0	712	38	0	
9	0	0	0	0	511	515	0	693	38	0	
10	0	0	0	0	508	516	0	660	38	0	
11	0	0	0	0	508	513	0	623	38	0	
12	0	0	0	0	509	514	1	592	38	0	
13	0	0	0	0	508	512	0	566	38	0	
14	0	0	0	0	515	513	0	551	38	0	
15	0	0	0	0	510	513	0	551	38	0	
0	0	0	0	0	516	513	1	563	38	0	
1	0	0	0	0	512	512	0	586	38	0	
2	0	0	0	0	502	511	0	627	38	0	
3	0	0	0	0	510	512	0	683	38	0	
4	0	0	0	0	509	512	0	743	38	0	
5	0	0	0	0	508	513	0	798	38	0	
6	0	0	0	0	508	515	0	849	38	0	
7	0	0	0	0	512	513	0	901	38	0	
8	0	0	0	0	512	513	1	952	38	0	
9	0	0	0	0	511	512	0	1009	38	0	
10	0	0	0	0	514	513	0	1018	38	0	
11	0	0	0	0	513	513	0	1018	38	0	
12	0	0	0	0	512	512	1	1019	38	0	
13	0	0	0	0	505	511	0	1018	38	0	
14	0	0	0	0	505	511	0	1018	38	0	
15	0	0	0	0	515	511	0	1018	38	0	
0	0	0	0	0	513	512	1	1019	38	0	
1	0	0	0	0	512	510	0	1018	38	0	
2	0	0	0	0	509	510	0	1018	38	0	
3	0	0	0	0	510	512	0	1018	38	0	
4	0	0	0	0	509	512	1	1019	38	0	
5	0	0	0	0	513	512	0	1018	38	0	
6	0	0	0	0	510	511	0	1018	38	0	
7	0	0	0	0	511	513	0	1018	38	0	
8	0	0	0	0	508	513	1	1019	38	0	
9	0	0	0	0	507	511	0	1018	38	0	
10	0	0	0	0	508	511	0	1018	38	0	
11	0	0	0	0	512	512	0	1018	38	0	
12	0	0	0	0	509	512	1	1019	38	0	
13	0	0	0	0	509	510	0	1018	38	0	
14	0	0	0	0	511	511	0	1018	38	0	
15	0	0	0	0	506	513	0	1018	38	0	
0	0	0	0	0	515	510	1	1018	38	0	
1	0	0	0	0	505	510	0	1018	38	0	
2	0	0	0	0	510	510	0	1018	38	0	
3	0	0	0	0	513	510	0	1018	38	0	
4	0	0	0	0	505	509	1	1018	38	0	
5	0	0	0	0	512	511	0	1019	38	0	
6	0	0	0	0	501	513	0	1018	38	0	
7	0	0	0	0	510	512	0	1018	38	0	
8	0	0	0	0	515	511	1	1019	38	0	
9	0	0	0	0	511	511	0	1018	38	0	
10	0	0	0	0	511	511	0	1019	38	0	
11	0	0	0	0	511	511	0	1018	38	0	
12	0	0	0	0	510	511	1	1019	38	0	
13	0	0	0	0	508	512	0	1018	38	0	
14	0	0	0	0	508	511	0	1018	38	0	
15	0	0	0	0	508	511	0	1018	39	0	
0	0	0	0	0	513	512	1	1019	38	0	
1	0	0	0	0	511	512	0	1018	38	0	
2	0	0	0	0	504	513	0	1018	38	0	
3	0	0	0	0	518	516	0	1018	38	0	
4	0	0	0	0	514	515	0	1019	38	0	
5	0	0	0	0	507	515	0	1019	38	0	
6	0	0	0	0	507	515	0	1018	38	0	
7	0	0	0	0	513	515	0	1018	38	0	
8	0	0	0	0	512	513	1	1019	38	0	
9	0	0	0	0	512	512	0	1019	38	0	
10	0	0	0	0	505	513	0	1018	38	0	
11	0	0	0	0	514	514	0	1018	38	0	
12	0	0	0	0	507	514	1	1019	38	0	
13	0	0	0	0	515	510	0	1018	38	0	
14	0	0	0	0	509	511	0	1018	38	0	
15	0	0	0	0	503	513	0	1018	39	0	
0	0	0	0	0	508	511	1	1018	38	0	
1	0	0	0	0	521	512	0	1018	38	0	
2	0	0	0	0	511	512	0	1018	38	0	
3	0	0	0	0	512	513	0	1018	38	0	
4	0	0	0	0	507	513	1	1019	38	0	
5	0	0	0	0	509	513	0	1018	38	0	
6	0	0	0	0	508	515	0	1018	38	0	
7	0	0	0	0	511	516	0	1018	38	0	
8	0	0	0	0	511	517	1	1019	38	0	
9	0	0	0	0	502	516	0	1018	38	0	
10	0	0	0	0	509	516	0	1018	38	0	
11	0	0	0	0	511	515	0	1018	38	0	
12	0	0	0	0	507	513	1	1018	38	0	
13	0	0	0	0	513	514	0	1018	38	0	
14	0	0	0	0	513	512	0	1018	38	0	
15	0	0	0	0	510	513	0	1018	38	0	
0	0	0	0	0	505	513	1	1019	38	0	
1	0	0	0	0	508	511	0	1018	38	0	
2	0	0	0	0	508	513	0	1018	38	0	
3	0	0	0	0	515	510	0	1018	38	0	
4	0	0	0	0	506	510	1	1018	38	0	
5	0	0	0	0	508	509	0	1018	38	0	
6	0	0	0	0	506	511	0	1018	38	0	
7	0	0	0	0	513	510	0	1018	38	0	
8	0	0	0	0	507	512	1	1019	38	0	
9	0	0	0	0	511	510	0	1018	38	0	
10	0	0	0	0	510	513	0	1018	38	0	
11	0	0	0	0	513	514	0	1018	38	0	
12	0	0	0	0	518	512	1	1019	38	0	
13	0	0	0	0	510	511	0	1018	38	0	
14	0	0	0	0	506	513	0	1018	38	0	
15	0	0	0	0	517	514	0	1018	38	0	
0	0	0	0	0	511	513	1	1019	38	0	
1	0	0	0	0	503	510	0	1018	38	0	
2	0	0	0	0	508	510	0	1018	38	0	
3	0	0	0	0	514	509	0	1018	38	0	
4	0	0	0	0	512	509	1	1018	38	0	
5	0	0	0	0	508	509	0	1018	38	0	
6	0	0	0	0	510	509	0	1018	38	0	
7	0	0	0	0	514	510	0	1018	38	0	
8	0	0	0	0	508	510	1	1019	38	0	
9	0	0	0	0	512	511	0	1018	38	0	
10	0	0	0	0	510	512	0	1018	38	0	
11	0	0	0	0	508	511	0	1018	38	0	
12	0	0	0	0	511	512	1	1019	38	0	
13	0	0	0	0	514	511	0	1018	38	0	
14	0	0	0	0	509	509	0	1018	38	0	
15	0	0	0	0	511	512	0	1018	38	0	
0	0	0	0	0	520	511	1	1019	38	0	
1	0	0	0	0	513	512	0	1018	38	0	
2	0	0	0	0	501	513	0	1018	38	0	
3	0	0	0	0	504	512	0	1018	38	0	
4	0	0	0	0	507	512	1	1019	38	0	
5	0	0	0	0	513	512	0	1018	38	0	
6	0	0	0	0	509	512	0	1018	38	0	
7	0	0	0	0	504	511	0	1018	38	0	
8	0	0	0	0	512	513	1	1019	38	0	
9	0	0	0	0	517	510	0	1018	38	0	
10	0	0	0	0	512	511	0	1018	38	0	
11	0	0	0	0	513	514	0	1018	38	0	
12	0	0	0	0	511	515	1	1019	38	0	
13	0	0	0	0	510	514	0	1018	38	0	
14	0	0	0	0	508	515	0	1018	38	0	
15	0	0	0	0	511	517	0	1018	38	0	
0	0	0	0	0	512	517	1	1019	38	0	
1	0	0	0	0	511	517	0	1018	38	0	
2	0	0	0	0	510	518	0	1018	38	0	
3	0	0	0	0	511	518	0	1018	38	0	
4	0	0	0	0	517	516	1	1019	38	0	
5	0	0	0	0	509	514	0	1018	38	0	
6	0	0	0	0	504	514	0	1018	38	0	
7	0	0	0	0	507	515	0	1018	38	0	
8	0	0	0	0	504	515	1	1008	38	0	
9	0	0	0	0	516	515	0	1002	38	0	
10	0	0	0	0	512	514	0	1000	38	0	
11	0	0	0	0	514	515	0	998	38	0	
12	0	0	0	0	508	513	1	995	38	0	
13	0	0	0	0	505	513	0	990	38	0	
14	0	0	0	0	512	511	0	989	38	0	
15	0	0	0	0	511	513	0	984	38	0	
0	0	0	0	0	509	512	1	976	38	0	
1	0	0	0	0	508	511	0	959	38	0	
2	0	0	0	0	508	512	0	936	38	0	
3	0	0	0	0	514	512	0	908	38	0	
4	0	0	0	0	509	513	1	886	38	0	
5	0	0	0	0	512	512	0	876	38	0	
6	0	0	0	0	512	512	0	870	38	0	
7	0	0	0	0	511	514	0	869	38	0	
8	0	0	0	0	512	512	1	868	38	0	
9	0	0	0	0	519	510	0	870	38	0	
10	0	0	0	0	507	512	0	874	38	0	
11	0	0	0	0	508	512	0	877	38	0	
12	0	0	0	0	511	511	1	879	38	0	
13	0	0	0	0	512	513	0	875	38	0	
14	0	0	0	0	514	512	0	875	38	0	
15	0	0	0	0	500	513	0	874	38	0	
0	0	0	0	0	507	512	1	874	38	0	
1	0	0	0	0	510	513	0	875	38	0	
2	0	0	0	0	509	513	0	875	38	0	
3	0	0	0	0	504	513	0	867	38	0	
4	0	0	0	0	516	512	1	859	38	0	
5	0	0	0	0	513	512	0	849	38	0	
6	0	0	0	0	510	512	0	838	38	0	
7	0	0	0	0	511	512	0	829	39	0	
8	0	0	0	0	504	512	1	819	38	0	
9	0	0	0	0	512	512	0	821	38	0	
10	0	0	0	0	516	514	0	822	38	0	
11	0	0	0	0	513	513	0	825	38	0	
12	0	0	0	0	511	513	1	815	38	0	
13	0	0	0	0	506	512	0	810	38	0	
14	0	0	0	0	506	511	0	811	38	0	
15	0	0	0	0	515	510	0	810	38	0	
0	0	0	0	0	505	511	1	811	38	0	
1	0	0	0	0	516	509	0	787	38	0	
2	0	0	0	0	511	509	0	775	38	0	
3	0	0	0	0	510	509	0	760	38	0	
4	0	0	0	0	511	511	1	748	38	0	
5	0	0	0	0	512	510	0	736	38	0	
6	0	0	0	0	512	513	0	733	38	0	
7	0	0	0	0	503	515	0	733	39	0	
8	0	0	0	0	509	512	1	730	38	0	
9	0	0	0	0	511	511	0	736	38	0	
10	0	0	0	0	507	514	0	745	38	0	
11	0	0	0	0	515	513	0	752	38	0	
12	0	0	0	0	512	513	1	744	38	0	
13	0	0	0	0	505	513	0	733	38	0	
14	0	0	0	0	509	513	0	719	38	0	
15	0	0	0	0	515	514	0	706	38	0	
0	0	0	0	0	517	513	1	692	38	0	
1	0	0	0	0	504	511	0	677	38	0	
2	0	0	0	0	516	512	0	663	38	0	
3	0	0	0	0	510	512	0	652	38	0	
4	0	0	0	0	505	512	1	643	38	0	
5	0	0	0	0	504	513	0	636	38	0	
6	0	0	0	0	510	514	0	622	38	0	
7	0	0	0	0	513	513	0	611	38	0	
8	0	0	0	0	507	512	1	602	38	0	
9	0	0	0	0	515	510	0	594	38	0	
10	0	0	0	0	508	512	0	596	38	0	
11	0	0	0	0	511	512	0	602	38	0	
12	0	0	0	0	513	512	1	615	38	0	
13	0	0	0	0	510	511	0	631	38	0	
14	0	0	0	0	514	512	0	649	38	0	
15	0	0	0	0	502	513	0	668	38	0	
0	0	0	0	0	514	513	1	683	38	0	
1	0	0	0	0	509	513	0	690	38	0	
2	0	0	0	0	507	513	0	686	38	0	
3	0	0	0	0	512	513	0	679	38	0	
4	0	0	0	0	508	511	1	671	38	0	
5	0	0	0	0	512	509	0	662	38	0	
6	0	0	0	0	510	510	0	657	38	0	
7	0	0	0	0	516	511	0	653	38	0	
8	0	0	0	0	512	511	1	643	38	0	
9	0	0	0	0	506	508	0	638	38	0	
10	0	0	0	0	513	508	0	628	38	0	
11	0	0	0	0	521	509	0	621	38	0	
12	0	0	0	0	511	510	1	610	38	0	
13	0	0	0	0	513	512	0	596	38	0	
14	0	0	0	0	511	510	0	586	38	0	
15	0	0	0	0	509	511	0	588	38	0	
0	0	0	0	0	513	512	1	596	38	0	
1	0	0	0	0	506	513	0	613	38	0	
2	0	0	0	0	513	513	0	639	38	0	
3	0	0	0	0	511	513	0	673	38	0	
4	0	0	0	0	506	512	1	704	38	0	
5	0	0	0	0	510	511	0	733	38	0	
6	0	0	0	0	510	511	0	763	38	0	
7	0	0	0	0	505	511	0	794	38	0	
8	0	0	0	0	509	512	1	821	38	0	
9	0	0	0	0	511	512	0	848	38	0	
10	0	0	0	0	511	512	0	872	38	0	
11	0	0	0	0	508	513	0	899	38	0	
12	0	0	0	0	512	512	1	921	38	0	
13	0	0	0	0	507	513	0	956	38	0	
14	0	0	0	0	508	515	0	985	38	0	
15	0	0	0	0	521	516	0	1005	38	0	
0	0	0	0	0	504	515	1	1019	38	0	
1	0	0	0	0	510	513	0	1018	38	0	
2	0	0	0	0	504	512	0	1018	38	0	
3	0	0	0	0	511	512	0	1018	38	0	
4	0	0	0	0	513	510	1	1019	38	0	
5	0	0	0	0	508	510	0	1018	38	0	
6	0	0	0	0	511	511	0	1018	38	0	
7	0	0	0	0	514	513	0	1018	38	0	
8	0	0	0	0	514	513	1	1019	38	0	
9	0	0	0	0	515	514	0	1018	38	0	
10	0	0	0	0	506	512	0	1018	38	0	
11	0	0	0	0	509	514	0	1018	38	0	
12	0	0	0	0	506	514	1	1019	38	0	
13	0	0	0	0	510	511	0	1018	38	0	
14	0	0	0	0	508	511	0	1018	38	0	
15	0	0	0	0	512	514	0	1018	38	0	
0	0	0	0	0	513	513	1	1019	38	0	
1	0	0	0	0	510	513	0	1018	38	0	
2	0	0	0	0	507	513	0	1018	38	0	
3	0	0	0	0	511	515	0	1018	38	0	
4	0	0	0	0	508	514	1	1019	38	0	
5	0	0	0	0	514	513	0	1018	38	0	
6	0	0	0	0	510	511	0	1018	38	0	
7	0	0	0	0	515	512	0	1018	38	0	
8	0	0	0	0	512	510	1	1019	38	0	
9	0	0	0	0	508	510	0	1018	38	0	
10	0	0	0	0	505	511	0	1018	38	0	
11	0	0	0	0	508	513	0	1018	38	0	
12	0	0	0	0	513	512	1	1019	38	0	
13	0	0	0	0	512	512	0	1018	38	0	
14	0	0	0	0	516	513	0	1018	38	0	
15	0	0	0	0	506	513	0	1017	38	0	
0	0	0	0	0	508	512	1	1019	38	0	
1	0	0	0	0	507	510	0	1018	38	0	
2	0	0	0	0	511	510	0	1018	38	0	
3	0	0	0	0	518	511	0	1018	38	0	
4	0	0	0	0	516	511	1	1018	38	0	
5	0	0	0	0	512	509	0	1018	38	0	
6	0	0	0	0	509	510	0	1018	38	0	
7	0	0	0	0	514	512	0	1018	38	0	
8	0	0	0	0	514	511	1	1019	38	0	
9	0	0	0	0	504	512	0	1018	38	0	
10	0	0	0	0	509	513	0	1018	39	0	
11	0	0	0	0	505	516	0	1018	38	0	
12	0	0	0	0	503	513	1	1018	38	0	
13	0	0	0	0	512	513	0	976	38	0	
14	0	0	0	0	504	513	0	937	38	0	
15	0	0	0	0	508	512	0	896	38	0	
0	0	0	0	0	518	511	1	860	38	0	
1	0	0	0	0	513	509	0	860	39	0	
2	0	0	0	0	508	510	0	859	38	0	
3	0	0	0	0	511	511	0	879	38	0	
4	0	0	0	0	512	509	1	900	39	0	
5	0	0	0	0	513	509	0	913	39	0	
6	0	0	0	0	506	508	0	921	39	0	
7	0	0	0	0	509	511	0	911	39	0	
8	0	0	0	0	511	507	1	892	38	0	
9	0	0	0	0	510	508	0	874	39	0	
10	0	0	0	0	516	509	0	851	39	0	
11	0	0	0	0	508	509	0	815	39	0	
12	0	0	0	0	509	510	1	772	39	0	
13	0	0	0	0	507	508	0	744	39	0	
14	0	0	0	0	518	510	0	749	39	0	
15	0	0	0	0	512	510	0	780	39	0	
0	0	0	0	0	508	509	1	838	39	0	
1	0	0	0	0	509	509	0	888	38	0	
2	0	0	0	0	513	511	0	909	38	0	
3	0	0	0	0	513	513	0	899	38	0	
4	0	0	0	0	512	513	1	867	38	0	
5	0	0	0	0	504	511	0	832	38	0	
6	0	0	0	0	511	510	0	803	38	0	
7	0	0	0	0	514	512	0	778	39	0	
8	0	0	0	0	516	510	0	753	38	0	
9	0	0	0	0	507	510	0	728	38	0	
10	0	0	0	0	511	512	0	704	38	0	
11	0	0	0	0	506	513	0	685	38	0	
12	0	0	0	0	508	512	1	659	38	0	
13	0	0	0	0	512	512	0	624	38	0	
14	0	0	0	0	512	512	0	585	38	0	
15	0	0	0	0	511	511	0	558	38	0	
0	0	0	0	0	511	512	1	551	38	0	
1	0	0	0	0	506	513	0	557	38	0	
2	0	0	0	0	508	513	0	572	38	0	
3	0	0	0	0	513	514	0	584	38	0	
4	0	0	0	0	507	512	1	596	38	0	
5	0	0	0	0	507	513	0	600	38	0	
6	0	0	0	0	508	515	0	600	38	0	
7	0	0	0	0	506	513	0	596	38	0	
8	0	0	0	0	508	514	1	588	38	0	
9	0	0	0	0	510	513	0	581	38	0	
10	0	0	0	0	512	512	0	574	38	0	
11	0	0	0	0	514	513	0	564	38	0	
12	0	0	0	0	519	513	1	559	38	0	
13	0	0	0	0	513	510	0	552	38	0	
14	0	0	0	0	510	512	0	537	38	0	
15	0	0	0	0	512	513	0	522	38	0	
0	0	0	0	0	514	512	1	508	38	0	
1	0	0	0	0	501	512	0	510	38	0	
2	0	0	0	0	508	513	0	519	38	0	
3	0	0	0	0	508	514	0	533	38	0	
4	0	0	0	0	507	512	1	546	38	0	
5	0	0	0	0	506	512	0	548	38	0	
6	0	0	0	0	512	513	0	535	38	0	
7	0	0	0	0	510	513	0	515	38	0	
8	0	0	0	0	510	511	1	500	38	0	
9	0	0	0	0	506	511	0	506	38	0	
10	0	0	0	0	508	512	0	488	38	0	
11	0	0	0	0	521	512	0	483	38	0	
12	0	0	0	0	513	511	1	487	38	0	
13	0	0	0	0	512	512	0	509	38	0	
14	0	0	0	0	504	512	0	505	38	0	
15	0	0	0	0	505	513	0	518	38	0	
0	0	0	0	0	518	515	1	537	38	0	
1	0	0	0	0	504	511	0	563	38	0	
2	0	0	0	0	504	513	0	571	38	0	
3	0	0	0	0	512	514	0	587	38	0	
4	0	0	0	0	508	514	0	596	38	0	
5	0	0	0	0	511	513	0	601	38	0	
6	0	0	0	0	515	514	0	602	38	0	
7	0	0	0	0	512	515	0	601	38	0	
8	0	0	0	0	514	514	1	585	38	0	
9	0	0	0	0	507	515	0	570	38	0	
10	0	0	0	0	511	515	0	559	38	0	
11	0	0	0	0	506	513	0	549	38	0	
12	0	0	0	0	514	513	1	536	38	0	
13	0	0	0	0	512	513	0	523	38	0	
14	0	0	0	0	514	513	0	511	38	0	
15	0	0	0	0	512	514	0	505	38	0	
0	0	0	0	0	511	513	1	500	38	0	
1	0	0	0	0	508	512	0	503	38	0	
2	0	0	0	0	504	512	0	508	38	0	
3	0	0	0	0	511	511	0	523	38	0	
4	0	0	0	0	509	510	0	550	38	0	
5	0	0	0	0	506	511	0	571	38	0	
6	0	0	0	0	513	512	0	593	38	0	
7	0	0	0	0	513	512	0	610	38	0	
8	0	0	0	0	510	512	1	615	38	0	
9	0	0	0	0	507	512	0	616	38	0	
10	0	0	0	0	514	512	0	617	38	0	
11	0	0	0	0	513	515	0	616	38	0	
12	0	0	0	0	511	515	1	607	38	0	
13	0	0	0	0	507	515	0	590	38	0	
14	0	0	0	0	508	514	0	571	38	0	
15	0	0	0	0	506	515	0	547	39	0	
0	0	0	0	0	515	514	0	527	38	0	
1	0	0	0	0	513	513	0	511	38	0	
2	0	0	0	0	513	515	0	504	38	0	
3	0	0	0	0	513	513	0	496	38	0	
4	0	0	0	0	507	512	0	489	38	0	
5	0	0	0	0	508	514	0	487	38	0	
6	0	0	0	0	507	514	0	492	38	0	
7	0	0	0	0	507	515	0	494	38	0	
8	0	0	0	0	514	512	0	485	39	0	
9	0	0	0	0	511	512	0	474	38	0	
10	0	0	0	0	515	512	0	466	38	0	
11	0	0	0	0	510	514	0	472	38	0	
12	0	0	0	0	505	516	1	458	38	0	
13	0	0	0	0	511	514	0	455	39	0	
14	0	0	0	0	515	515	0	453	38	0	
15	0	0	0	0	510	514	0	447	39	0	
0	0	0	0	0	518	513	0	443	38	0	
1	0	0	0	0	510	511	0	444	38	0	
2	0	0	0	0	509	510	0	446	38	0	
3	0	0	0	0	515	511	0	454	38	0	
4	0	0	0	0	518	512	1	444	38	0	
5	0	0	0	0	510	511	0	435	38	0	
6	0	0	0	0	500	513	0	426	38	0	
7	0	0	0	0	513	514	0	421	38	0	
8	0	0	0	0	510	513	0	419	38	0	
9	0	0	0	0	510	512	0	422	38	0	
10	0	0	0	0	510	513	0	426	38	0	
11	0	0	0	0	510	512	0	431	38	0	
12	0	0	0	0	510	515	1	432	39	0	
13	0	0	0	0	511	514	0	432	39	0	
14	0	0	0	0	509	513	0	419	39	0	
15	0	0	0	0	510	514	0	401	38	0	
0	0	0	0	0	505	513	1	387	38	0	
1	0	0	0	0	505	513	0	387	38	0	
2	0	0	0	0	508	515	0	393	38	0	
3	0	0	0	0	516	516	0	399	38	0	
4	0	0	0	0	518	516	1	407	38	0	
5	0	0	0	0	507	514	0	427	38	0	
6	0	0	0	0	508	513	0	444	38	0	
7	0	0	0	0	511	512	0	449	38	0	
8	0	0	0	0	509	513	0	448	38	0	
9	0	0	0	0	511	512	0	443	38	0	
10	0	0	0	0	511	514	0	435	38	0	
11	0	0	0	0	515	511	0	428	38	0	
12	0	0	0	0	512	511	0	419	38	0	
13	0	0	0	0	510	513	0	405	38	0	
14	0	0	0	0	513	513	0	389	38	0	
15	0	0	0	0	513	511	0	374	38	0	
0	0	0	0	0	513	510	1	364	38	0	
1	0	0	0	0	508	510	0	355	38	0	
2	0	0	0	0	509	512	0	348	38	0	
3	0	0	0	0	506	513	0	339	38	0	
4	0	0	0	0	503	513	0	334	38	0	
5	0	0	0	0	516	514	0	336	38	0	
6	0	0	0	0	509	514	0	342	38	0	
7	0	0	0	0	509	514	0	344	38	0	
8	0	0	0	0	515	515	1	344	38	0	
9	0	0	0	0	510	515	0	347	38	0	
10	0	0	0	0	503	513	0	340	38	0	
11	0	0	0	0	512	513	0	330	38	0	
12	0	0	0	0	511	512	1	318	38	0	
13	0	0	0	0	510	510	0	307	38	0	
14	0	0	0	0	515	510	0	292	38	0	
15	0	0	0	0	508	512	0	288	38	0	
0	0	0	0	0	509	513	0	289	38	0	
1	0	0	0	0	504	514	0	315	38	0	
2	0	0	0	0	510	512	0	325	38	0	
3	0	0	0	0	506	512	0	350	38	0	
4	0	0	0	0	512	510	1	376	38	0	
5	0	0	0	0	514	512	0	401	38	0	
6	0	0	0	0	511	512	0	414	38	0	
7	0	0	0	0	507	512	0	422	38	0	
8	0	0	0	0	509	509	0	416	38	0	
9	0	0	0	0	505	508	0	422	38	0	
10	0	0	0	0	519	509	0	417	38	0	
11	0	0	0	0	510	509	0	419	38	0	
12	0	0	0	0	512	508	0	421	38	0	
13	0	0	0	0	500	508	0	418	38	0	
14	0	0	0	0	505	511	0	401	38	0	
15	0	0	0	0	509	512	0	384	38	0	
0	0	0	0	0	510	512	0	370	38	0	
1	0	0	0	0	515	512	0	361	38	0	
2	0	0	0	0	508	512	0	351	38	0	
3	0	0	0	0	511	513	0	342	38	0	
4	0	0	0	0	508	514	1	329	38	0	
5	0	0	0	0	519	514	0	327	38	0	
6	0	0	0	0	512	515	0	331	38	0	
7	0	0	0	0	509	514	0	332	38	0	
8	0	0	0	0	512	515	1	326	38	0	
9	0	0	0	0	509	512	0	323	38	0	
10	0	0	0	0	505	511	0	324	38	0	
11	0	0	0	0	511	513	0	329	38	0	
12	0	0	0	0	506	514	1	331	38	0	
13	0	0	0	0	510	512	0	336	38	0	
14	0	0	0	0	514	509	0	345	38	0	
15	0	0	0	0	511	508	0	352	38	0	
0	0	0	0	0	513	509	1	357	38	0	
1	0	0	0	0	510	507	0	362	38	0	
2	0	0	0	0	513	508	0	374	38	0	
3	0	0	0	0	507	510	0	383	38	0	
4	0	0	0	0	514	513	0	384	38	0	
5	0	0	0	0	509	511	0	379	38	0	
6	0	0	0	0	516	510	0	373	38	0	
7	0	0	0	0	511	510	0	369	38	0	
8	0	0	0	0	508	511	0	368	38	0	
9	0	0	0	0	507	512	0	372	38	0	
10	0	0	0	0	506	512	0	371	38	0	
11	0	0	0	0	509	511	0	364	38	0	
12	0	0	0	0	513	512	1	361	38	0	
13	0	0	0	0	511	512	0	355	38	0	
14	0	0	0	0	511	512	0	341	38	0	
15	0	0	0	0	513	512	0	330	38	0	
0	0	0	0	0	507	511	1	322	38	0	
1	0	0	0	0	516	511	0	321	38	0	
2	0	0	0	0	513	511	0	319	38	0	
3	0	0	0	0	506	510	0	319	38	0	
4	0	0	0	0	508	511	1	314	38	0	
5	0	0	0	0	509	512	0	315	38	0	
6	0	0	0	0	508	513	0	319	38	0	
7	0	0	0	0	508	512	0	320	39	0	
8	0	0	0	0	515	513	1	325	38	0	
9	0	0	0	0	516	512	0	334	38	0	
10	0	0	0	0	508	512	0	342	38	0	
11	0	0	0	0	505	514	0	342	38	0	
12	0	0	0	0	512	513	1	337	38	0	
13	0	0	0	0	509	513	0	333	39	0	
14	0	0	0	0	510	512	0	328	38	0	
15	0	0	0	0	511	511	0	327	38	0	
0	0	0	0	0	513	511	1	329	39	0	
1	0	0	0	0	509	511	0	325	39	0	
2	0	0	0	0	509	512	0	314	39	0	
3	0	0	0	0	506	511	0	300	39	0	
4	0	0	0	0	514	509	1	292	38	0	
5	0	0	0	0	509	507	0	293	39	0	
6	0	0	0	0	508	508	0	292	39	0	
7	0	0	0	0	509	508	0	280	39	0	
8	0	0	0	0	510	509	1	266	39	0	
9	0	0	0	0	514	510	0	255	38	0	
10	0	0	0	0	507	511	0	241	39	0	
11	0	0	0	0	511	513	0	235	39	0	
12	0	0	0	0	516	512	1	220	39	0	
13	0	0	0	0	513	511	0	209	39	0	
14	0	0	0	0	508	510	0	202	39	0	
15	0	0	0	0	513	509	0	196	39	0	
0	0	0	0	0	512	509	1	190	38	0	
1	0	0	0	0	510	510	0	191	38	0	
2	0	0	0	0	512	511	0	188	38	0	
3	0	0	0	0	503	512	0	185	38	0	
4	0	0	0	0	511	510	0	186	38	0	
5	0	0	0	0	508	512	0	184	38	0	
6	0	0	0	0	509	512	0	182	38	0	
7	0	0	0	0	506	513	0	179	38	0	
8	0	0	0	0	511	513	0	184	38	0	
9	0	0	0	0	512	514	0	194	38	0	
10	0	0	0	0	501	513	0	197	38	0	
11	0	0	0	0	518	513	0	199	38	0	
12	0	0	0	0	509	513	0	203	38	0	
13	0	0	0	0	508	513	0	212	38	0	
14	0	0	0	0	517	514	0	215	38	0	
15	0	0	0	0	511	514	0	209	38	0	
0	0	0	0	0	506	511	1	204	38	0	
1	0	0	0	0	516	510	0	200	38	0	
2	0	0	0	0	512	512	0	194	38	0	
3	0	0	0	0	513	512	0	192	38	0	
4	0	0	0	0	512	514	0	201	38	0	
5	0	0	0	0	504	513	0	207	38	0	
6	0	0	0	0	508	515	0	208	38	0	
7	0	0	0	0	507	515	0	217	38	0	
8	0	0	0	0	504	516	0	228	38	0	
9	0	0	0	0	512	514	0	242	38	0	
10	0	0	0	0	508	512	0	262	38	0	
11	0	0	0	0	510	513	0	284	38	0	
12	0	0	0	0	512	512	0	295	38	0	
13	0	0	0	0	511	510	0	295	38	0	
14	0	0	0	0	509	509	0	299	38	0	
15	0	0	0	0	514	512	0	302	38	0	
0	0	0	0	0	505	512	1	300	38	0	
1	0	0	0	0	507	509	0	293	38	0	
2	0	0	0	0	506	511	0	285	38	0	
3	0	0	0	0	511	512	0	280	38	0	
4	0	0	0	0	513	512	1	278	38	0	
5	0	0	0	0	511	511	0	272	38	0	
6	0	0	0	0	504	510	0	262	38	0	
7	0	0	0	0	513	511	0	256	38	0	
8	0	0	0	0	511	512	1	256	38	0	
9	0	0	0	0	507	511	0	261	38	0	
10	0	0	0	0	518	511	0	263	38	0	
11	0	0	0	0	516	514	0	267	38	0	
12	0	0	0	0	511	511	0	272	38	0	
13	0	0	0	0	511	511	0	280	38	0	
14	0	0	0	0	513	510	0	290	38	0	
15	0	0	0	0	512	509	0	297	38	0	
0	0	0	0	0	513	508	1	298	38	0	
1	0	0	0	0	506	508	0	301	38	0	
2	0	0	0	0	506	511	0	298	38	0	
3	0	0	0	0	507	512	0	288	38	0	
4	0	0	0	0	507	512	1	281	38	0	
5	0	0	0	0	506	512	0	284	38	0	
6	0	0	0	0	508	511	0	284	38	0	
7	0	0	0	0	513	514	0	291	38	0	
8	0	0	0	0	508	515	1	294	38	0	
9	0	0	0	0	510	513	0	288	38	0	
10	0	0	0	0	516	514	0	271	38	0	
11	0	0	0	0	510	516	0	254	38	0	
12	0	0	0	0	508	516	1	244	38	0	
13	0	0	0	0	516	512	0	246	38	0	
14	0	0	0	0	514	512	0	231	38	0	
15	0	0	0	0	504	511	0	231	38	0	
0	0	0	0	0	509	512	1	234	38	0	
1	0	0	0	0	511	511	0	241	38	0	
2	0	0	0	0	511	510	0	253	38	0	
3	0	0	0	0	518	511	0	256	38	0	
4	0	0	0	0	510	511	1	248	38	0	
5	0	0	0	0	507	511	0	239	38	0	
6	0	0	0	0	511	513	0	235	38	0	
7	0	0	0	0	511	515	0	232	38	0	
8	0	0	0	0	509	513	1	228	38	0	
9	0	0	0	0	509	512	0	231	38	0	
10	0	0	0	0	512	511	0	237	38	0	
11	0	0	0	0	506	512	0	248	38	0	
12	0	0	0	0	510	512	1	258	38	0	
13	0	0	0	0	510	512	0	268	38	0	
14	0	0	0	0	507	513	0	275	38	0	
15	0	0	0	0	510	515	0	282	38	0	
0	0	0	0	0	508	515	1	286	38	0	
1	0	0	0	0	513	512	0	293	38	0	
2	0	0	0	0	512	514	0	294	38	0	
3	0	0	0	0	509	515	0	288	38	0	
4	0	0	0	0	515	515	0	274	38	0	
5	0	0	0	0	499	513	0	261	38	0	
6	0	0	0	0	511	516	0	257	38	0	
7	0	0	0	0	511	516	0	251	38	0	
8	0	0	0	0	512	518	1	246	38	0	
9	0	0	0	0	511	514	0	244	38	0	
10	0	0	0	0	504	513	0	237	38	0	
11	0	0	0	0	507	514	0	238	38	0	
12	0	0	0	0	511	512	0	251	38	0	
13	0	0	0	0	508	513	0	258	38	0	
14	0	0	0	0	513	513	0	267	38	0	
15	0	0	0	0	510	514	0	273	38	0	
0	0	0	0	0	509	514	0	266	38	0	
1	0	0	0	0	513	512	0	275	38	0	
2	0	0	0	0	515	511	0	257	38	0	
3	0	0	0	0	518	512	0	245	38	0	
4	0	0	0	0	516	510	0	230	38	0	
5	0	0	0	0	511	510	0	228	39	0	
6	0	0	0	0	514	511	0	224	38	0	
7	0	0	0	0	507	512	0	222	39	0	
8	0	0	0	0	512	510	0	211	38	0	
9	0	0	0	0	506	508	0	209	38	0	
10	0	0	0	0	510	512	0	207	38	0	
11	0	0	0	0	506	513	0	199	38	0	
12	0	0	0	0	512	513	1	192	39	0	
13	0	0	0	0	514	510	0	190	39	0	
14	0	0	0	0	513	512	0	180	39	0	
15	0	0	0	0	520	514	0	174	38	0	
0	0	0	0	0	511	513	0	174	39	0	
1	0	0	0	0	505	514	0	178	38	0	
2	0	0	0	0	514	515	0	179	38	0	
3	0	0	0	0	510	516	0	179	38	0	
4	0	0	0	0	511	513	0	167	38	0	
5	0	0	0	0	509	512	0	154	39	0	
6	0	0	0	0	507	511	0	144	38	0	
7	0	0	0	0	506	511	0	144	39	0	
8	0	0	0	0	510	511	0	155	38	0	
9	0	0	0	0	510	510	0	175	38	0	
10	0	0	0	0	505	510	0	191	38	0	
11	0	0	0	0	507	512	0	207	38	0	
12	0	0	0	0	510	511	0	224	39	0	
13	0	0	0	0	510	510	0	244	38	0	
14	0	0	0	0	511	511	0	264	38	0	
15	0	0	0	0	510	511	0	283	38	0	
0	0	0	0	0	512	510	0	297	38	0	
1	0	0	0	0	514	510	0	309	38	0	
2	0	0	0	0	510	512	0	317	38	0	
3	0	0	0	0	518	513	0	316	38	0	
4	0	0	0	0	514	513	1	308	38	0	
5	0	0	0	0	505	512	0	297	38	0	
6	0	0	0	0	510	513	0	287	38	0	
7	0	0	0	0	510	515	0	273	38	0	
8	0	0	0	0	504	516	1	272	38	0	
9	0	0	0	0	516	516	0	275	38	0	
10	0	0	0	0	504	515	0	273	38	0	
11	0	0	0	0	505	516	0	262	38	0	
12	0	0	0	0	509	515	0	247	38	0	
13	0	0	0	0	512	515	0	241	38	0	
14	0	0	0	0	515	514	0	241	38	0	
15	0	0	0	0	508	513	0	243	38	0	
0	0	0	0	0	512	512	0	248	38	0	
1	0	0	0	0	511	512	0	259	38	0	
2	0	0	0	0	515	512	0	274	38	0	
3	0	0	0	0	507	513	0	284	38	0	
4	0	0	0	0	512	511	1	292	38	0	
5	0	0	0	0	511	511	0	297	38	0	
6	0	0	0	0	508	510	0	299	38	0	
7	0	0	0	0	514	511	0	300	38	0	
8	0	0	0	0	503	511	1	303	38	0	
9	0	0	0	0	508	511	0	305	38	0	
10	0	0	0	0	511	510	0	299	38	0	
11	0	0	0	0	510	510	0	292	38	0	
12	0	0	0	0	512	511	0	284	38	0	
13	0	0	0	0	504	512	0	279	38	0	
14	0	0	0	0	513	511	0	279	38	0	
15	0	0	0	0	510	511	0	286	38	0	
0	0	0	0	0	509	512	1	294	38	0	
1	0	0	0	0	507	511	0	309	38	0	
2	0	0	0	0	513	512	0	322	38	0	
3	0	0	0	0	510	514	0	333	38	0	
4	0	0	0	0	511	512	0	341	38	0	
5	0	0	0	0	503	511	0	348	38	0	
6	0	0	0	0	512	513	0	353	38	0	
7	0	0	0	0	514	516	0	355	38	0	
8	0	0	0	0	505	516	1	352	38	0	
9	0	0	0	0	506	515	0	337	38	0	
10	0	0	0	0	515	514	0	325	38	0	
11	0	0	0	0	513	515	0	316	38	0	
12	0	0	0	0	509	516	1	308	38	0	
13	0	0	0	0	512	514	0	299	38	0	
14	0	0	0	0	510	512	0	291	38	0	
15	0	0	0	0	511	512	0	286	38	0	
0	0	0	0	0	513	512	0	288	38	0	
1	0	0	0	0	510	515	0	289	38	0	
2	0	0	0	0	508	515	0	298	38	0	
3	0	0	0	0	516	513	0	289	38	0	
4	0	0	0	0	504	515	1	288	38	0	
5	0	0	0	0	497	512	0	287	38	0	
6	0	0	0	0	509	512	0	284	38	0	
7	0	0	0	0	514	513	0	289	38	0	
8	0	0	0	0	515	515	1	294	38	0	
9	0	0	0	0	516	514	0	295	38	0	
10	0	0	0	0	508	514	0	287	38	0	
11	0	0	0	0	508	516	0	276	38	0	
12	0	0	0	0	503	515	1	273	38	0	
13	0	0	0	0	518	511	0	281	38	0	
14	0	0	0	0	512	511	0	292	38	0	
15	0	0	0	0	511	512	0	304	38	0	
0	0	0	0	0	514	511	0	312	38	0	
1	0	0	0	0	512	511	0	316	38	0	
2	0	0	0	0	508	510	0	321	38	0	
3	0	0	0	0	507	510	0	326	38	0	
4	0	0	0	0	510	510	1	322	38	0	
5	0	0	0	0	510	511	0	315	38	0	
6	0	0	0	0	505	511	0	315	38	0	
7	0	0	0	0	514	512	0	317	38	0	
8	0	0	0	0	509	511	1	320	38	0	
9	0	0	0	0	511	510	0	319	38	0	
10	0	0	0	0	512	513	0	320	38	0	
11	0	0	0	0	505	513	0	320	38	0	
12	0	0	0	0	516	511	0	321	38	0	
13	0	0	0	0	512	511	0	326	38	0	
14	0	0	0	0	511	511	0	330	38	0	
15	0	0	0	0	510	511	0	331	38	0	
0	0	0	0	0	506	511	0	331	38	0	
1	0	0	0	0	504	511	0	335	38	0	
2	0	0	0	0	507	513	0	348	38	0	
3	0	0	0	0	507	513	0	362	38	0	
4	0	0	0	0	513	513	1	369	38	0	
5	0	0	0	0	516	512	0	376	38	0	
6	0	0	0	0	508	513	0	388	39	0	
7	0	0	0	0	512	512	0	399	38	0	
8	0	0	0	0	505	512	0	405	38	0	
9	0	0	0	0	512	513	0	401	38	0	
10	0	0	0	0	513	513	0	388	38	0	
11	0	0	0	0	512	512	0	372	38	0	
12	0	0	0	0	508	511	0	359	39	0	
13	0	0	0	0	506	513	0	350	38	0	
14	0	0	0	0	510	513	0	337	38	0	
15	0	0	0	0	505	513	0	327	38	0	
0	0	0	0	0	510	513	1	323	38	0	
1	0	0	0	0	509	513	0	321	39	0	
2	0	0	0	0	511	511	0	314	39	0	
3	0	0	0	0	515	511	0	307	38	0	
4	0	0	0	0	509	509	0	312	39	0	
5	0	0	0	0	514	510	0	312	39	0	
6	0	0	0	0	510	511	0	300	39	0	
7	0	0	0	0	506	512	0	297	38	0	
8	0	0	0	0	512	514	1	290	38	0	
9	0	0	0	0	509	513	0	285	38	0	
10	0	0	0	0	512	515	0	284	39	0	
11	0	0	0	0	509	514	0	284	38	0	
12	0	0	0	0	511	512	0	286	39	0	
13	0	0	0	0	511	511	0	281	39	0	
14	0	0	0	0	510	512	0	271	38	0	
15	0	0	0	0	513	513	0	259	39	0	
0	0	0	0	0	506	513	0	255	38	0	
1	0	0	0	0	500	513	0	259	38	0	
2	0	0	0	0	506	512	0	262	38	0	
3	0	0	0	0	512	511	0	269	38	0	
4	0	0	0	0	518	511	1	286	38	0	
5	0	0	0	0	511	511	0	300	38	0	
6	0	0	0	0	511	510	0	312	38	0	
7	0	0	0	0	518	511	0	318	38	0	
8	0	0	0	0	505	510	0	324	38	0	
9	0	0	0	0	511	510	0	322	38	0	
10	0	0	0	0	510	511	0	326	38	0	
11	0	0	0	0	512	511	0	328	38	0	
12	0	0	0	0	506	513	1	329	38	0	
13	0	0	0	0	507	513	0	332	38	0	
14	0	0	0	0	511	511	0	336	38	0	
15	0	0	0	0	513	513	0	341	38	0	
0	0	0	0	0	507	513	1	338	38	0	
1	0	0	0	0	502	511	0	336	38	0	
2	0	0	0	0	510	511	0	337	38	0	
3	0	0	0	0	513	512	0	335	38	0	
4	0	0	0	0	515	512	1	334	38	0	
5	0	0	0	0	508	512	0	333	38	0	
6	0	0	0	0	506	512	0	330	38	0	
7	0	0	0	0	510	513	0	334	38	0	
8	0	0	0	0	515	513	1	344	38	0	
9	0	0	0	0	512	510	0	344	38	0	
10	0	0	0	0	512	510	0	339	38	0	
11	0	0	0	0	515	511	0	332	38	0	
12	0	0	0	0	511	510	0	333	38	0	
13	0	0	0	0	510	511	0	336	38	0	
14	0	0	0	0	509	511	0	335	38	0	
15	0	0	0	0	508	512	0	330	38	0	
0	0	0	0	0	513	511	1	326	38	0	
1	0	0	0	0	511	511	0	335	38	0	
2	0	0	0	0	509	510	0	342	38	0	
3	0	0	0	0	509	510	0	343	38	0	
4	0	0	0	0	513	512	1	336	38	0	
5	0	0	0	0	508	512	0	331	38	0	
6	0	0	0	0	510	512	0	327	38	0	
7	0	0	0	0	511	514	0	322	38	0	
8	0	0	0	0	511	511	0	327	38	0	
9	0	0	0	0	508	511	0	316	38	0	
10	0	0	0	0	506	514	0	310	38	0	
11	0	0	0	0	508	515	0	301	38	0	
12	0	0	0	0	508	515	0	301	38	0	
13	0	0	0	0	512	515	0	303	38	0	
14	0	0	0	0	507	514	0	301	38	0	
15	0	0	0	0	511	513	0	293	38	0	
0	0	0	0	0	514	513	1	286	38	0	
1	0	0	0	0	508	513	0	286	38	0	
2	0	0	0	0	511	512	0	298	38	0	
3	0	0	0	0	512	511	0	322	38	0	
4	0	0	0	0	504	511	0	347	38	0	
5	0	0	0	0	510	511	0	387	38	0	
6	0	0	0	0	515	512	0	436	38	0	
7	0	0	0	0	506	511	0	484	38	0	
8	0	0	0	0	504	510	0	523	38	0	
9	0	0	0	0	513	511	0	545	38	0	
10	0	0	0	0	514	512	0	566	38	0	
11	0	0	0	0	512	511	0	592	38	0	
12	0	0	0	0	507	512	1	614	38	0	
13	0	0	0	0	515	510	0	631	38	0	
14	0	0	0	0	511	511	0	637	38	0	
15	0	0	0	0	508	512	0	628	38	0	
0	0	0	0	0	513	511	0	619	38	0	
1	0	0	0	0	507	513	0	614	38	0	
2	0	0	0	0	509	512	0	621	38	0	
3	0	0	0	0	513	512	0	644	38	0	
4	0	0	0	0	505	511	1	682	38	0	
5	0	0	0	0	514	510	0	696	38	0	
6	0	0	0	0	512	511	0	722	38	0	
7	0	0	0	0	505	512	0	748	38	0	
8	0	0	0	0	507	511	1	771	38	0	
9	0	0	0	0	507	511	0	789	38	0	
10	0	0	0	0	515	511	0	801	38	0	
11	0	0	0	0	515	513	0	811	38	0	
12	0	0	0	0	510	513	1	825	38	0	
13	0	0	0	0	512	514	0	836	38	0	
14	0	0	0	0	501	515	0	847	38	0	
15	0	0	0	0	516	513	0	852	38	0	
0	0	0	0	0	505	514	1	852	38	0	
1	0	0	0	0	513	513	0	853	38	0	
2	0	0	0	0	511	513	0	851	38	0	
3	0	0	0	0	509	514	0	856	38	0	
4	0	0	0	0	505	514	0	864	38	0	
5	0	0	0	0	504	513	0	870	38	0	
6	0	0	0	0	513	512	0	878	38	0	
7	0	0	0	0	512	514	0	888	39	0	
8	0	0	0	0	512	513	1	892	38	0	
9	0	0	0	0	504	513	0	895	39	0	
10	0	0	0	0	518	513	0	897	38	0	
11	0	0	0	0	512	514	0	899	38	0	
12	0	0	0	0	507	515	1	884	38	0	
13	0	0	0	0	508	513	0	868	38	0	
14	0	0	0	0	512	513	0	850	38	0	
15	0	0	0	0	513	513	0	833	38	0	
0	0	0	0	0	508	511	1	812	38	0	
1	0	0	0	0	510	511	0	793	38	0	
2	0	0	0	0	511	512	0	778	38	0	
3	0	0	0	0	506	513	0	766	38	0	
4	0	0	0	0	508	514	1	762	38	0	
5	0	0	0	0	513	510	0	753	38	0	
6	0	0	0	0	514	511	0	760	38	0	
7	0	0	0	0	512	512	0	769	39	0	
8	0	0	0	0	511	512	1	781	38	0	
9	0	0	0	0	511	510	0	788	38	0	
10	0	0	0	0	513	511	0	794	38	0	
11	0	0	0	0	513	511	0	795	38	0	
12	0	0	0	0	509	509	1	786	38	0	
13	0	0	0	0	513	510	0	775	38	0	
14	0	0	0	0	506	512	0	763	39	0	
15	0	0	0	0	501	513	0	752	39	0	
0	0	0	0	0	517	515	1	735	38	0	
1	0	0	0	0	509	513	0	724	38	0	
2	0	0	0	0	505	512	0	713	38	0	
3	0	0	0	0	508	513	0	700	38	0	
4	0	0	0	0	514	514	1	699	38	0	
5	0	0	0	0	515	513	0	691	38	0	
6	0	0	0	0	507	513	0	700	38	0	
7	0	0	0	0	517	513	0	712	38	0	
8	0	0	0	0	515	514	1	723	38	0	
9	0	0	0	0	510	514	0	731	38	0	
10	0	0	0	0	507	515	0	735	38	0	
11	0	0	0	0	510	515	0	744	38	0	
12	0	0	0	0	511	514	1	751	38	0	
13	0	0	0	0	506	510	0	753	38	0	
14	0	0	0	0	507	509	0	751	38	0	
15	0	0	0	0	508	511	0	753	38	0	
0	0	0	0	0	503	510	1	754	38	0	
1	0	0	0	0	507	510	0	755	38	0	
2	0	0	0	0	516	510	0	756	38	0	
3	0	0	0	0	511	510	0	755	38	0	
4	0	0	0	0	513	510	1	753	38	0	
5	0	0	0	0	510	509	0	740	38	0	
6	0	0	0	0	511	511	0	732	38	0	
7	0	0	0	0	514	510	0	724	38	0	
8	0	0	0	0	511	511	0	716	38	0	
9	0	0	0	0	504	511	0	707	38	0	
10	0	0	0	0	513	512	0	703	38	0	
11	0	0	0	0	512	511	0	698	38	0	
12	0	0	0	0	508	513	1	698	38	0	
13	0	0	0	0	507	511	0	700	38	0	
14	0	0	0	0	516	511	0	700	38	0	
15	0	0	0	0	509	512	0	692	38	0	
0	0	0	0	0	513	513	1	684	38	0	
1	0	0	0	0	515	512	0	674	38	0	
2	0	0	0	0	512	513	0	659	38	0	
3	0	0	0	0	508	514	0	647	38	0	
4	0	0	0	0	508	512	1	638	38	0	
5	0	0	0	0	511	512	0	634	38	0	
6	0	0	0	0	508	513	0	627	38	0	
7	0	0	0	0	509	515	0	623	38	0	
8	0	0	0	0	512	515	1	623	38	0	
9	0	0	0	0	510	514	0	622	38	0	
10	0	0	0	0	515	514	0	621	38	0	
11	0	0	0	0	509	513	0	620	38	0	
12	0	0	0	0	502	512	1	617	38	0	
13	0	0	0	0	509	510	0	608	38	0	
14	0	0	0	0	513	511	0	597	38	0	
15	0	0	0	0	515	510	0	586	38	0	
0	0	0	0	0	514	511	1	578	38	0	
1	0	0	0	0	513	509	0	573	38	0	
2	0	0	0	0	516	510	0	566	38	0	
3	0	0	0	0	511	511	0	555	38	0	
4	0	0	0	0	512	511	0	541	38	0	
5	0	0	0	0	513	510	0	526	38	0	
6	0	0	0	0	508	510	0	515	38	0	
7	0	0	0	0	509	509	0	509	38	0	
8	0	0	0	0	512	509	1	495	38	0	
9	0	0	0	0	508	508	0	479	38	0	
10	0	0	0	0	502	509	0	458	38	0	
11	0	0	0	0	510	510	0	441	38	0	
12	0	0	0	0	512	512	1	430	38	0	
13	0	0	0	0	505	511	0	430	38	0	
14	0	0	0	0	510	512	0	433	38	0	
15	0	0	0	0	513	511	0	437	38	0	
0	0	0	0	0	506	511	0	441	38	0	
1	0	0	0	0	508	512	0	442	38	0	
2	0	0	0	0	513	515	0	441	38	0	
3	0	0	0	0	508	517	0	440	38	0	
4	0	0	0	0	511	517	1	434	38	0	
5	0	0	0	0	507	515	0	436	38	0	
6	0	0	0	0	511	514	0	444	38	0	
7	0	0	0	0	505	514	0	455	38	0	
8	0	0	0	0	515	515	1	476	38	0	
9	0	0	0	0	514	512	0	475	38	0	
10	0	0	0	0	512	511	0	495	38	0	
11	0	0	0	0	504	512	0	517	38	0	
12	0	0	0	0	510	512	1	552	38	0	
13	0	0	0	0	512	513	0	550	38	0	
14	0	0	0	0	511	513	0	550	38	0	
15	0	0	0	0	505	515	0	543	38	0	
0	0	0	0	0	508	515	1	534	38	0	
1	0	0	0	0	504	514	0	525	38	0	
2	0	0	0	0	512	515	0	513	38	0	
3	0	0	0	0	504	515	0	504	38	0	
4	0	0	0	0	510	514	0	505	38	0	
5	0	0	0	0	512	513	0	511	38	0	
6	0	0	0	0	510	511	0	517	38	0	
7	0	0	0	0	517	513	0	527	38	0	
8	0	0	0	0	509	512	1	539	38	0	
9	0	0	0	0	508	513	0	546	38	0	
10	0	0	0	0	504	514	0	554	38	0	
11	0	0	0	0	505	515	0	558	38	0	
12	0	0	0	0	518	514	0	553	38	0	
13	0	0	0	0	514	513	0	545	38	0	
14	0	0	0	0	509	514	0	531	38	0	
15	0	0	0	0	514	514	0	512	39	0	
0	0	0	0	0	505	513	1	497	38	0	
1	0	0	0	0	509	512	0	492	38	0	
2	0	0	0	0	510	512	0	488	39	0	
3	0	0	0	0	504	514	0	483	39	0	
4	0	0	0	0	507	513	1	473	39	0	
5	0	0	0	0	510	514	0	466	38	0	
6	0	0	0	0	507	513	0	464	39	0	
7	0	0	0	0	506	513	0	469	39	0	
8	0	0	0	0	510	512	0	469	38	0	
9	0	0	0	0	509	510	0	475	38	0	
10	0	0	0	0	511	510	0	475	38	0	
11	0	0	0	0	511	510	0	472	38	0	
12	0	0	0	0	508	511	1	463	38	0	
13	0	0	0	0	515	510	0	451	39	0	
14	0	0	0	0	513	511	0	438	38	0	
15	0	0	0	0	509	511	0	426	38	0	
0	0	0	0	0	518	510	0	421	38	0	
1	0	0	0	0	511	511	0	408	38	0	
2	0	0	0	0	508	513	0	400	38	0	
3	0	0	0	0	511	512	0	393	38	0	
4	0	0	0	0	508	514	1	386	38	0	
5	0	0	0	0	514	511	0	384	38	0	
6	0	0	0	0	509	512	0	387	38	0	
7	0	0	0	0	511	512	0	391	39	0	
8	0	0	0	0	512	511	0	395	38	0	
9	0	0	0	0	514	512	0	412	38	0	
10	0	0	0	0	519	513	0	415	38	0	
11	0	0	0	0	503	512	0	426	38	0	
12	0	0	0	0	516	513	0	437	38	0	
13	0	0	0	0	505	512	0	449	38	0	
14	0	0	0	0	506	512	0	460	38	0	
15	0	0	0	0	510	513	0	467	38	0	
0	0	0	0	0	512	512	0	470	38	0	
1	0	0	0	0	512	513	0	469	38	0	
2	0	0	0	0	515	512	0	470	38	0	
3	0	0	0	0	504	511	0	476	38	0	
4	0	0	0	0	505	512	0	478	38	0	
5	0	0	0	0	509	512	0	478	38	0	
6	0	0	0	0	508	511	0	479	38	0	
7	0	0	0	0	516	511	0	479	38	0	
8	0	0	0	0	508	513	1	476	38	0	
9	0	0	0	0	506	512	0	474	38	0	
10	0	0	0	0	505	511	0	471	38	0	
11	0	0	0	0	513	512	0	472	38	0	
12	0	0	0	0	511	510	0	477	38	0	
13	0	0	0	0	504	508	0	487	38	0	
14	0	0	0	0	510	510	0	499	38	0	
15	0	0	0	0	511	509	0	508	38	0	
0	0	0	0	0	505	511	1	511	38	0	
1	0	0	0	0	518	511	0	503	38	0	
2	0	0	0	0	516	512	0	485	38	0	
3	0	0	0	0	512	512	0	463	38	0	
4	0	0	0	0	513	511	1	443	38	0	
5	0	0	0	0	509	511	0	429	38	0	
6	0	0	0	0	514	512	0	407	38	0	
7	0	0	0	0	511	512	0	394	38	0	
8	0	0	0	0	512	513	0	394	38	0	
9	0	0	0	0	509	513	0	397	38	0	
10	0	0	0	0	508	513	0	404	38	0	
11	0	0	0	0	511	514	0	418	38	0	
12	0	0	0	0	508	513	1	438	38	0	
13	0	0	0	0	515	513	0	454	38	0	
14	0	0	0	0	510	514	0	471	38	0	
15	0	0	0	0	513	513	0	489	38	0	
0	0	0	0	0	505	514	1	497	38	0	
1	0	0	0	0	506	512	0	501	38	0	
2	0	0	0	0	515	512	0	497	38	0	
3	0	0	0	0	510	514	0	491	38	0	
4	0	0	0	0	507	514	1	485	38	0	
5	0	0	0	0	510	511	0	471	38	0	
6	0	0	0	0	512	512	0	455	38	0	
7	0	0	0	0	502	512	0	444	38	0	
8	0	0	0	0	505	512	0	441	38	0	
9	0	0	0	0	511	512	0	446	38	0	
10	0	0	0	0	515	514	0	451	38	0	
11	0	0	0	0	511	515	0	455	38	0	
12	0	0	0	0	516	513	0	457	38	0	
13	0	0	0	0	504	513	0	466	38	0	
14	0	0	0	0	510	516	0	484	38	0	
15	0	0	0	0	515	515	0	507	38	0	
0	0	0	0	0	512	514	1	525	38	0	
1	0	0	0	0	507	514	0	535	38	0	
2	0	0	0	0	509	515	0	542	38	0	
3	0	0	0	0	509	515	0	547	38	0	
4	0	0	0	0	505	513	1	538	38	0	
5	0	0	0	0	518	513	0	527	38	0	
6	0	0	0	0	511	513	0	512	38	0	
7	0	0	0	0	505	514	0	491	38	0	
8	0	0	0	0	514	515	1	472	38	0	
9	0	0	0	0	515	513	0	456	38	0	
10	0	0	0	0	510	513	0	444	38	0	
11	0	0	0	0	510	512	0	439	38	0	
12	0	0	0	0	510	513	1	452	38	0	
13	0	0	0	0	501	511	0	447	38	0	
14	0	0	0	0	507	512	0	459	38	0	
15	0	0	0	0	512	512	0	476	38	0	
0	0	0	0	0	510	511	0	496	38	0	
1	0	0	0	0	510	510	0	519	38	0	
2	0	0	0	0	510	513	0	538	38	0	
3	0	0	0	0	515	512	0	554	38	0	
4	0	0	0	0	508	510	1	570	38	0	
5	0	0	0	0	514	510	0	588	38	0	
6	0	0	0	0	513	512	0	598	38	0	
7	0	0	0	0	505	512	0	611	38	0	
8	0	0	0	0	510	513	0	618	38	0	
9	0	0	0	0	511	513	0	621	38	0	
10	0	0	0	0	512	512	0	627	38	0	
11	0	0	0	0	512	512	0	641	38	0	
12	0	0	0	0	506	513	1	664	38	0	
13	0	0	0	0	510	512	0	691	38	0	
14	0	0	0	0	508	512	0	708	38	0	
15	0	0	0	0	510	512	0	723	39	0	
0	0	0	0	0	513	512	0	735	38	0	
1	0	0	0	0	508	511	0	745	38	0	
2	0	0	0	0	512	512	0	735	38	0	
3	0	0	0	0	516	515	0	731	38	0	
4	0	0	0	0	505	514	1	710	39	0	
5	0	0	0	0	508	513	0	693	38	0	
6	0	0	0	0	510	513	0	681	39	0	
7	0	0	0	0	514	513	0	665	39	0	
8	0	0	0	0	513	514	1	648	38	0	
9	0	0	0	0	504	512	0	634	39	0	
10	0	0	0	0	510	512	0	621	39	0	
11	0	0	0	0	515	514	0	606	38	0	
12	0	0	0	0	508	512	1	595	39	0	
13	0	0	0	0	509	511	0	594	39	0	
14	0	0	0	0	511	511	0	593	39	0	
15	0	0	0	0	506	511	0	585	39	0	
0	0	0	0	0	507	511	0	573	39	0	
1	0	0	0	0	508	509	0	561	39	0	
2	0	0	0	0	516	510	0	553	39	0	
3	0	0	0	0	516	511	0	551	39	0	
4	0	0	0	0	508	512	1	551	39	0	
5	0	0	0	0	509	512	0	553	38	0	
6	0	0	0	0	512	513	0	555	38	0	
7	0	0	0	0	516	512	0	559	38	0	
8	0	0	0	0	504	509	0	562	38	0	
9	0	0	0	0	507	511	0	560	38	0	
10	0	0	0	0	514	511	0	561	38	0	
11	0	0	0	0	509	513	0	565	38	0	
12	0	0	0	0	513	512	1	568	39	0	
13	0	0	0	0	510	511	0	563	38	0	
14	0	0	0	0	509	511	0	549	38	0	
15	0	0	0	0	514	513	0	532	39	0	
0	0	0	0	0	514	512	1	522	38	0	
1	0	0	0	0	507	511	0	513	38	0	
2	0	0	0	0	510	512	0	504	38	0	
3	0	0	0	0	509	513	0	500	38	0	
4	0	0	0	0	515	513	1	504	38	0	
5	0	0	0	0	517	513	0	507	38	0	
6	0	0	0	0	511	513	0	503	38	0	
7	0	0	0	0	507	513	0	496	38	0	
8	0	0	0	0	513	512	0	487	38	0	
9	0	0	0	0	509	513	0	481	38	0	
10	0	0	0	0	505	510	0	476	38	0	
11	0	0	0	0	506	511	0	478	38	0	
12	0	0	0	0	508	511	0	477	38	0	
13	0	0	0	0	508	511	0	476	38	0	
14	0	0	0	0	518	513	0	470	38	0	
15	0	0	0	0	513	513	0	457	38	0	
0	0	0	0	0	509	514	1	455	38	0	
1	0	0	0	0	506	512	0	475	38	0	
2	0	0	0	0	506	511	0	501	38	0	
3	0	0	0	0	509	513	0	529	38	0	
4	0	0	0	0	514	512	1	524	38	0	
5	0	0	0	0	506	512	0	532	38	0	
6	0	0	0	0	510	510	0	530	38	0	
7	0	0	0	0	515	511	0	529	38	0	
8	0	0	0	0	507	510	1	531	38	0	
9	0	0	0	0	506	510	0	534	38	0	
10	0	0	0	0	511	509	0	534	38	0	
11	0	0	0	0	508	511	0	536	38	0	
12	0	0	0	0	509	511	1	527	38	0	
13	0	0	0	0	514	511	0	516	38	0	
14	0	0	0	0	507	512	0	512	38	0	
15	0	0	0	0	508	513	0	512	38	0	
0	0	0	0	0	513	511	0	512	38	0	
1	0	0	0	0	509	511	0	519	38	0	
2	0	0	0	0	508	513	0	531	38	0	
3	0	0	0	0	518	513	0	537	38	0	
4	0	0	0	0	516	512	1	543	38	0	
5	0	0	0	0	509	511	0	548	38	0	
6	0	0	0	0	505	511	0	550	38	0	
7	0	0	0	0	510	511	0	545	38	0	
8	0	0	0	0	509	513	1	530	38	0	
9	0	0	0	0	507	510	0	509	38	0	
10	0	0	0	0	512	511	0	487	38	0	
11	0	0	0	0	508	511	0	469	38	0	
12	0	0	0	0	504	510	0	456	38	0	
13	0	0	0	0	511	508	0	444	38	0	
14	0	0	0	0	505	509	0	442	38	0	
15	0	0	0	0	511	510	0	448	38	0	
0	0	0	0	0	510	510	0	461	38	0	
1	0	0	0	0	508	509	0	478	38	0	
2	0	0	0	0	508	510	0	495	38	0	
3	0	0	0	0	507	513	0	507	38	0	
4	0	0	0	0	512	512	1	501	38	0	
5	0	0	0	0	516	508	0	491	38	0	
6	0	0	0	0	511	509	0	487	38	0	
7	0	0	0	0	506	510	0	489	38	0	
8	0	0	0	0	512	509	1	496	38	0	
9	0	0	0	0	504	508	0	515	38	0	
10	0	0	0	0	508	509	0	537	38	0	
11	0	0	0	0	509	509	0	558	38	0	
12	0	0	0	0	507	508	1	578	38	0	
13	0	0	0	0	514	508	0	584	38	0	
14	0	0	0	0	505	508	0	577	38	0	
15	0	0	0	0	512	510	0	564	38	0	
0	0	0	0	0	519	510	0	550	38	0	
1	0	0	0	0	512	509	0	537	38	0	
2	0	0	0	0	508	510	0	527	38	0	
3	0	0	0	0	510	511	0	522	38	0	
4	0	0	0	0	508	514	0	521	38	0	
5	0	0	0	0	510	513	0	523	38	0	
6	0	0	0	0	508	511	0	521	38	0	
7	0	0	0	0	506	512	0	516	38	0	
8	0	0	0	0	513	511	0	518	38	0	
9	0	0	0	0	514	511	0	527	38	0	
10	0	0	0	0	511	512	0	531	38	0	
11	0	0	0	0	519	514	0	523	38	0	
12	0	0	0	0	515	514	1	504	38	0	
13	0	0	0	0	507	513	0	490	38	0	
14	0	0	0	0	508	513	0	474	38	0	
15	0	0	0	0	508	514	0	457	38	0	
0	0	0	0	0	507	511	0	448	38	0	
1	0	0	0	0	509	511	0	450	38	0	
2	0	0	0	0	515	512	0	462	38	0	
3	0	0	0	0	512	512	0	473	38	0	
4	0	0	0	0	510	514	1	481	38	0	
5	0	0	0	0	510	512	0	481	38	0	
6	0	0	0	0	505	513	0	477	38	0	
7	0	0	0	0	511	513	0	469	38	0	
8	0	0	0	0	508	514	1	459	38	0	
9	0	0	0	0	512	513	0	454	39	0	
10	0	0	0	0	515	514	0	447	38	0	
11	0	0	0	0	517	515	0	435	38	0	
12	0	0	0	0	510	514	1	423	38	0	
13	0	0	0	0	514	511	0	409	39	0	
14	0	0	0	0	508	512	0	401	39	0	
15	0	0	0	0	504	514	0	392	39	0	
0	0	0	0	0	499	515	1	388	39	0	
1	0	0	0	0	504	514	0	378	39	0	
2	0	0	0	0	508	514	0	377	38	0	
3	0	0	0	0	513	515	0	385	38	0	
4	0	0	0	0	509	514	0	394	39	0	
5	0	0	0	0	508	513	0	401	39	0	
6	0	0	0	0	512	511	0	414	39	0	
7	0	0	0	0	512	509	0	428	39	0	
8	0	0	0	0	507	511	0	437	39	0	
9	0	0	0	0	515	510	0	439	39	0	
10	0	0	0	0	511	510	0	439	38	0	
11	0	0	0	0	511	510	0	436	38	0	
12	0	0	0	0	513	508	1	426	38	0	
13	0	0	0	0	510	506	0	425	38	0	
14	0	0	0	0	515	508	0	428	38	0	
15	0	0	0	0	509	510	0	430	38	0	
0	0	0	0	0	509	512	1	426	38	0	
1	0	0	0	0	510	511	0	426	38	0	
2	0	0	0	0	509	512	0	425	38	0	
3	0	0	0	0	511	513	0	421	38	0	
4	0	0	0	0	506	512	1	410	38	0	
5	0	0	0	0	502	510	0	403	38	0	
6	0	0	0	0	511	510	0	399	39	0	
7	0	0	0	0	512	510	0	406	39	0	
8	0	0	0	0	507	512	1	420	38	0	
9	0	0	0	0	511	511	0	435	38	0	
10	0	0	0	0	518	511	0	448	38	0	
11	0	0	0	0	508	514	0	455	38	0	
12	0	0	0	0	505	515	0	454	38	0	
13	0	0	0	0	507	517	0	453	38	0	
14	0	0	0	0	512	516	0	452	38	0	
15	0	0	0	0	508	515	0	449	38	0	
0	0	0	0	0	513	516	1	447	38	0	
1	0	0	0	0	513	514	0	451	38	0	
2	0	0	0	0	510	513	0	449	38	0	
3	0	0	0	0	504	511	0	450	38	0	
4	0	0	0	0	510	511	1	454	38	0	
5	0	0	0	0	505	510	0	461	38	0	
6	0	0	0	0	513	512	0	467	38	0	
7	0	0	0	0	516	514	0	478	38	0	
8	0	0	0	0	511	515	1	492	38	0	
9	0	0	0	0	502	514	0	501	38	0	
10	0	0	0	0	512	513	0	508	38	0	
11	0	0	0	0	508	511	0	512	38	0	
12	0	0	0	0	521	513	1	513	38	0	
13	0	0	0	0	514	511	0	508	38	0	
14	0	0	0	0	514	512	0	498	38	0	
15	0	0	0	0	514	513	0	487	38	0	
0	0	0	0	0	504	514	1	468	38	0	
1	0	0	0	0	513	513	0	460	38	0	
2	0	0	0	0	507	512	0	452	38	0	
3	0	0	0	0	507	513	0	449	38	0	
4	0	0	0	0	508	514	1	437	38	0	
5	0	0	0	0	506	513	0	430	38	0	
6	0	0	0	0	513	513	0	428	38	0	
7	0	0	0	0	510	513	0	427	38	0	
8	0	0	0	0	511	511	0	422	38	0	
9	0	0	0	0	514	511	0	416	38	0	
10	0	0	0	0	507	511	0	412	38	0	
11	0	0	0	0	508	512	0	411	38	0	
12	0	0	0	0	513	512	1	410	38	0	
13	0	0	0	0	515	511	0	401	38	0	
14	0	0	0	0	508	512	0	390	38	0	
15	0	0	0	0	519	514	0	384	38	0	
0	0	0	0	0	509	513	1	382	38	0	
1	0	0	0	0	508	513	0	385	38	0	
2	0	0	0	0	510	512	0	396	38	0	
3	0	0	0	0	503	514	0	421	38	0	
4	0	0	0	0	508	512	0	457	38	0	
5	0	0	0	0	519	513	0	490	38	0	
6	0	0	0	0	515	512	0	519	38	0	
7	0	0	0	0	507	513	0	545	38	0	
8	0	0	0	0	511	514	1	562	38	0	
9	0	0	0	0	508	513	0	573	38	0	
10	0	0	0	0	507	513	0	571	38	0	
11	0	0	0	0	508	513	0	559	38	0	
12	0	0	0	0	517	510	0	531	38	0	
13	0	0	0	0	511	509	0	492	38	0	
14	0	0	0	0	510	510	0	448	38	0	
15	0	0	0	0	515	510	0	405	38	0	
0	0	0	0	0	513	510	1	362	38	0	
1	0	0	0	0	510	510	0	331	38	0	
2	0	0	0	0	512	509	0	293	38	0	
3	0	0	0	0	513	510	0	257	38	0	
4	0	0	0	0	502	511	0	228	38	0	
5	0	0	0	0	508	512	0	206	38	0	
6	0	0	0	0	506	512	0	174	38	0	
7	0	0	0	0	510	512	0	144	38	0	
8	0	0	0	0	507	511	1	105	38	0	
9	0	0	0	0	509	511	0	66	38	0	
10	0	0	0	0	503	512	0	22	38	0	
11	0	0	0	0	514	511	0	0	38	0	
12	0	0	0	0	505	511	1	0	38	0	
13	0	0	0	0	509	510	0	0	38	0	
14	0	0	0	0	511	510	0	0	38	0	
15	0	0	0	0	505	512	0	0	38	0	
0	0	0	0	0	516	511	1	0	38	0	
1	0	0	0	0	511	510	0	0	38	0	
2	0	0	0	0	512	512	0	0	38	0	
3	0	0	0	0	502	513	0	0	38	0	
4	0	0	0	0	504	515	1	0	38	0	
5	0	0	0	0	518	514	0	0	38	0	
6	0	0	0	0	505	513	0	0	38	0	
7	0	0	0	0	510	513	0	0	38	0	
8	0	0	0	0	511	513	0	0	38	0	
9	0	0	0	0	508	515	0	0	38	0	
10	0	0	0	0	513	513	0	0	38	0	
11	0	0	0	0	513	512	0	0	38	0	
12	0	0	0	0	512	514	1	0	38	0	
13	0	0	0	0	514	513	0	0	38	0	
14	0	0	0	0	512	513	0	0	38	0	
15	0	0	0	0	509	513	0	0	39	0	
0	0	0	0	0	519	513	0	0	38	0	
1	0	0	0	0	514	512	0	0	38	0	
2	0	0	0	0	509	512	0	0	38	0	
3	0	0	0	0	502	512	0	0	38	0	
4	0	0	0	0	509	511	0	0	38	0	
5	0	0	0	0	504	511	0	0	39	0	
6	0	0	0	0	505	511	0	0	39	0	
7	0	0	0	0	510	512	0	0	39	0	
8	0	0	0	0	514	511	0	0	38	0	
9	0	0	0	0	507	512	0	0	39	0	
10	0	0	0	0	506	512	0	0	39	0	
11	0	0	0	0	513	512	0	0	38	0	
12	0	0	0	0	508	511	0	0	39	0	
13	0	0	0	0	508	513	0	0	38	0	
14	0	0	0	0	508	514	0	0	39	0	
15	0	0	0	0	509	513	0	0	38	0	
0	0	0	0	0	513	510	0	0	38	0	
1	0	0	0	0	509	509	0	0	38	0	
2	0	0	0	0	509	511	0	0	38	0	
3	0	0	0	0	511	511	0	0	38	0	
4	0	0	0	0	512	512	1	0	38	0	
5	0	0	0	0	507	511	0	0	39	0	
6	0	0	0	0	514	509	0	0	39	0	
7	0	0	0	0	512	509	0	0	38	0	
8	0	0	0	0	510	508	1	0	38	0	
9	0	0	0	0	509	509	0	0	38	0	
10	0	0	0	0	507	511	0	0	38	0	
11	0	0	0	0	512	510	0	0	38	0	
12	0	0	0	0	518	511	1	0	38	0	
13	0	0	0	0	505	510	0	0	38	0	
14	0	0	0	0	504	510	0	0	38	0	
15	0	0	0	0	512	511	0	0	38	0	
0	0	0	0	0	512	510	0	0	38	0	
1	0	0	0	0	512	508	0	0	38	0	
2	0	0	0	0	499	508	0	0	38	0	
3	0	0	0	0	514	508	0	0	38	0	
4	0	0	0	0	516	511	1	0	38	0	
5	0	0	0	0	507	509	0	0	38	0	
6	0	0	0	0	507	509	0	0	38	0	
7	0	0	0	0	512	508	0	0	38	0	
8	0	0	0	0	506	509	1	0	38	0	
9	0	0	0	0	508	509	0	0	38	0	
10	0	0	0	0	511	510	0	0	38	0	
11	0	0	0	0	517	512	0	0	38	0	
12	0	0	0	0	512	514	1	0	38	0	
13	0	0	0	0	511	514	0	0	38	0	
14	0	0	0	0	511	514	0	0	38	0	
15	0	0	0	0	508	513	0	0	38	0	
0	0	0	0	0	508	511	0	0	38	0	
1	0	0	0	0	515	511	0	0	38	0	
2	0	0	0	0	515	512	0	0	38	0	
3	0	0	0	0	499	513	0	0	38	0	
4	0	0	0	0	505	513	1	0	38	0	
5	0	0	0	0	511	511	0	0	38	0	
6	0	0	0	0	512	511	0	0	38	0	
7	0	0	0	0	511	511	0	0	38	0	
8	0	0	0	0	506	511	1	0	38	0	
9	0	0	0	0	509	508	0	0	38	0	
10	0	0	0	0	508	510	0	0	38	0	
11	0	0	0	0	516	510	0	0	38	0	
12	0	0	0	0	506	509	1	0	38	0	
13	0	0	0	0	511	507	0	0	38	0	
14	0	0	0	0	515	509	0	0	38	0	
15	0	0	0	0	511	511	0	0	38	0	
0	0	0	0	0	510	509	0	0	38	0	
1	0	0	0	0	510	508	0	0	38	0	
2	0	0	0	0	510	509	0	0	38	0	
3	0	0	0	0	513	510	0	0	38	0	
4	0	0	0	0	512	509	0	0	38	0	
5	0	0	0	0	505	510	0	0	38	0	
6	0	0	0	0	511	511	0	0	38	0	
7	0	0	0	0	515	511	0	0	38	0	
8	0	0	0	0	511	511	0	0	38	0	
9	0	0	0	0	512	512	0	0	38	0	
10	0	0	0	0	515	511	0	0	38	0	
11	0	0	0	0	506	512	0	36	38	0	
12	0	0	0	0	505	511	0	53	38	0	
13	0	0	0	0	508	510	0	64	38	0	
14	0	0	0	0	508	510	0	70	38	0	
15	0	0	0	0	507	510	0	69	38	0	
0	0	0	0	0	511	512	1	66	38	0	
1	0	0	0	0	511	510	0	67	38	0	
2	0	0	0	0	513	511	0	71	38	0	
3	0	0	0	0	499	512	0	72	38	0	
4	0	0	0	0	510	514	1	75	38	0	
5	0	0	0	0	515	512	0	88	38	0	
6	0	0	0	0	507	511	0	108	38	0	
7	0	0	0	0	513	510	0	126	38	0	
8	0	0	0	0	513	511	1	139	38	0	
9	0	0	0	0	511	510	0	152	38	0	
10	0	0	0	0	512	511	0	161	38	0	
11	0	0	0	0	508	512	0	176	38	0	
12	0	0	0	0	511	511	0	182	38	0	
13	0	0	0	0	515	510	0	194	38	0	
14	0	0	0	0	516	511	0	212	38	0	
15	0	0	0	0	511	513	0	235	38	0	
0	0	0	0	0	511	512	0	241	38	0	
1	0	0	0	0	509	512	0	246	38	0	
2	0	0	0	0	512	512	0	254	38	0	
3	0	0	0	0	500	513	0	240	38	0	
4	0	0	0	0	508	513	0	237	38	0	
5	0	0	0	0	509	512	0	233	38	0	
6	0	0	0	0	509	512	0	234	38	0	
7	0	0	0	0	510	512	0	231	38	0	
8	0	0	0	0	523	513	1	224	38	0	
9	0	0	0	0	507	512	0	222	38	0	
10	0	0	0	0	510	511	0	226	38	0	
11	0	0	0	0	510	511	0	235	38	0	
12	0	0	0	0	516	511	1	246	38	0	
13	0	0	0	0	516	513	0	254	38	0	
14	0	0	0	0	512	513	0	262	38	0	
15	0	0	0	0	511	516	0	270	39	0	
0	0	0	0	0	508	515	1	284	38	0	
1	0	0	0	0	504	512	0	303	38	0	
2	0	0	0	0	513	511	0	318	38	0	
3	0	0	0	0	516	512	0	326	38	0	
4	0	0	0	0	509	512	1	325	38	0	
5	0	0	0	0	508	511	0	325	38	0	
6	0	0	0	0	506	512	0	318	38	0	
7	0	0	0	0	505	512	0	317	38	0	
8	0	0	0	0	513	511	1	313	38	0	
9	0	0	0	0	504	512	0	314	38	0	
10	0	0	0	0	510	512	0	311	38	0	
11	0	0	0	0	506	512	0	308	38	0	
12	0	0	0	0	517	512	1	304	38	0	
13	0	0	0	0	517	512	0	304	38	0	
14	0	0	0	0	509	512	0	303	39	0	
15	0	0	0	0	505	513	0	300	39	0	
0	0	0	0	0	507	512	1	301	39	0	
1	0	0	0	0	510	511	0	310	39	0	
2	0	0	0	0	515	512	0	324	38	0	
3	0	0	0	0	508	515	0	336	38	0	
4	0	0	0	0	512	514	1	349	38	0	
5	0	0	0	0	509	513	0	353	38	0	
6	0	0	0	0	509	513	0	353	39	0	
7	0	0	0	0	505	510	0	345	38	0	
8	0	0	0	0	512	511	0	331	38	0	
9	0	0	0	0	513	511	0	320	38	0	
10	0	0	0	0	506	513	0	312	38	0	
11	0	0	0	0	518	515	0	311	38	0	
12	0	0	0	0	511	513	1	317	38	0	
13	0	0	0	0	510	512	0	324	38	0	
14	0	0	0	0	508	512	0	342	38	0	
15	0	0	0	0	509	516	0	352	38	0	
0	0	0	0	0	509	516	1	362	38	0	
1	0	0	0	0	510	516	0	370	38	0	
2	0	0	0	0	513	516	0	382	38	0	
3	0	0	0	0	508	515	0	389	38	0	
4	0	0	0	0	509	516	1	390	38	0	
5	0	0	0	0	512	516	0	387	39	0	
6	0	0	0	0	513	515	0	384	39	0	
7	0	0	0	0	509	515	0	376	39	0	
8	0	0	0	0	510	515	1	375	38	0	
9	0	0	0	0	509	512	0	376	38	0	
10	0	0	0	0	509	513	0	380	38	0	
11	0	0	0	0	504	513	0	387	38	0	
12	0	0	0	0	511	514	0	404	38	0	
13	0	0	0	0	512	513	0	420	38	0	
14	0	0	0	0	511	514	0	435	38	0	
15	0	0	0	0	507	513	0	453	38	0	
0	0	0	0	0	505	512	0	462	38	0	
1	0	0	0	0	511	512	0	467	38	0	
2	0	0	0	0	513	513	0	477	38	0	
3	0	0	0	0	513	513	0	489	38	0	
4	0	0	0	0	512	512	0	506	38	0	
5	0	0	0	0	505	511	0	526	38	0	
6	0	0	0	0	508	511	0	548	38	0	
7	0	0	0	0	506	514	0	566	38	0	
8	0	0	0	0	511	513	0	575	38	0	
9	0	0	0	0	509	513	0	582	38	0	
10	0	0	0	0	508	514	0	580	38	0	
11	0	0	0	0	508	514	0	571	38	0	
12	0	0	0	0	515	514	1	557	38	0	
13	0	0	0	0	512	513	0	552	38	0	
14	0	0	0	0	506	514	0	553	38	0	
15	0	0	0	0	518	515	0	558	38	0	
0	0	0	0	0	513	514	1	564	38	0	
1	0	0	0	0	515	512	0	564	38	0	
2	0	0	0	0	511	513	0	560	38	0	
3	0	0	0	0	508	513	0	556	38	0	
4	0	0	0	0	511	515	1	556	38	0	
5	0	0	0	0	511	514	0	561	38	0	
6	0	0	0	0	515	514	0	571	38	0	
7	0	0	0	0	513	514	0	589	38	0	
8	0	0	0	0	513	513	0	594	38	0	
9	0	0	0	0	509	512	0	607	38	0	
10	0	0	0	0	503	516	0	611	38	0	
11	0	0	0	0	515	515	0	608	38	0	
12	0	0	0	0	512	515	1	595	38	0	
13	0	0	0	0	508	513	0	583	38	0	
14	0	0	0	0	507	513	0	573	38	0	
15	0	0	0	0	507	512	0	570	38	0	
0	0	0	0	0	508	512	1	568	38	0	
1	0	0	0	0	499	511	0	571	38	0	
2	0	0	0	0	511	513	0	577	38	0	
3	0	0	0	0	509	512	0	581	38	0	
4	0	0	0	0	513	513	0	581	38	0	
5	0	0	0	0	509	512	0	584	38	0	
6	0	0	0	0	510	512	0	585	38	0	
7	0	0	0	0	512	513	0	585	38	0	
8	0	0	0	0	512	513	0	579	38	0	
9	0	0	0	0	511	513	0	574	38	0	
10	0	0	0	0	516	512	0	563	38	0	
11	0	0	0	0	510	512	0	561	38	0	
12	0	0	0	0	505	510	0	561	38	0	
13	0	0	0	0	508	510	0	559	38	0	
14	0	0	0	0	510	511	0	565	38	0	
15	0	0	0	0	510	510	0	577	38	0	
0	0	0	0	0	511	511	1	591	38	0	
1	0	0	0	0	510	509	0	608	38	0	
2	0	0	0	0	509	509	0	615	38	0	
3	0	0	0	0	509	509	0	619	38	0	
4	0	0	0	0	508	511	1	620	38	0	
5	0	0	0	0	505	511	0	616	38	0	
6	0	0	0	0	507	513	0	605	38	0	
7	0	0	0	0	512	513	0	595	38	0	
8	0	0	0	0	510	510	0	589	38	0	
9	0	0	0	0	514	508	0	586	38	0	
10	0	0	0	0	513	510	0	582	38	0	
11	0	0	0	0	513	510	0	588	38	0	
12	0	0	0	0	510	512	1	587	38	0	
13	0	0	0	0	508	511	0	585	38	0	
14	0	0	0	0	510	511	0	588	38	0	
15	0	0	0	0	515	509	0	590	38	0	
0	0	0	0	0	514	510	1	591	38	0	
1	0	0	0	0	510	509	0	592	38	0	
2	0	0	0	0	511	511	0	590	38	0	
3	0	0	0	0	505	512	0	590	38	0	
4	0	0	0	0	507	511	1	596	38	0	
5	0	0	0	0	514	510	0	600	38	0	
6	0	0	0	0	511	510	0	601	38	0	
7	0	0	0	0	502	511	0	600	39	0	
8	0	0	0	0	513	511	1	591	39	0	
9	0	0	0	0	508	511	0	589	38	0	
10	0	0	0	0	515	511	0	595	39	0	
11	0	0	0	0	510	512	0	599	38	0	
12	0	0	0	0	510	512	1	598	38	0	
13	0	0	0	0	509	512	0	598	38	0	
14	0	0	0	0	503	514	0	597	38	0	
15	0	0	0	0	507	514	0	595	39	0	
0	0	0	0	0	513	514	1	591	38	0	
1	0	0	0	0	508	511	0	593	38	0	
2	0	0	0	0	511	512	0	595	38	0	
3	0	0	0	0	508	513	0	602	38	0	
4	0	0	0	0	512	514	1	612	39	0	
5	0	0	0	0	505	512	0	625	38	0	
6	0	0	0	0	509	512	0	638	39	0	
7	0	0	0	0	519	513	0	647	38	0	
8	0	0	0	0	512	512	1	659	38	0	
9	0	0	0	0	505	512	0	666	39	0	
10	0	0	0	0	507	512	0	667	38	0	
11	0	0	0	0	510	514	0	664	38	0	
12	0	0	0	0	508	514	1	658	38	0	
13	0	0	0	0	510	512	0	655	39	0	
14	0	0	0	0	515	512	0	646	39	0	
15	0	0	0	0	506	510	0	642	38	0	
0	0	0	0	0	505	509	0	653	38	0	
1	0	0	0	0	512	509	0	640	38	0	
2	0	0	0	0	515	510	0	639	38	0	
3	0	0	0	0	515	510	0	636	38	0	
4	0	0	0	0	515	509	1	642	38	0	
5	0	0	0	0	508	509	0	631	38	0	
6	0	0	0	0	506	510	0	635	38	0	
7	0	0	0	0	514	511	0	636	38	0	
8	0	0	0	0	516	513	0	638	38	0	
9	0	0	0	0	511	515	0	633	38	0	
10	0	0	0	0	510	516	0	636	38	0	
11	0	0	0	0	512	514	0	636	38	0	
12	0	0	0	0	504	513	1	638	38	0	
13	0	0	0	0	503	511	0	640	38	0	
14	0	0	0	0	508	511	0	643	38	0	
15	0	0	0	0	510	512	0	651	38	0	
0	0	0	0	0	512	511	1	652	38	0	
1	0	0	0	0	505	512	0	657	38	0	
2	0	0	0	0	513	512	0	662	38	0	
3	0	0	0	0	510	512	0	662	38	0	
4	0	0	0	0	506	513	1	666	38	0	
5	0	0	0	0	512	512	0	668	38	0	
6	0	0	0	0	515	511	0	662	38	0	
7	0	0	0	0	516	512	0	649	38	0	
8	0	0	0	0	507	512	1	630	38	0	
9	0	0	0	0	510	512	0	622	38	0	
10	0	0	0	0	512	512	0	617	38	0	
11	0	0	0	0	508	513	0	613	38	0	
12	0	0	0	0	510	512	0	607	38	0	
13	0	0	0	0	510	513	0	603	38	0	
14	0	0	0	0	506	513	0	599	38	0	
15	0	0	0	0	508	511	0	593	38	0	
0	0	0	0	0	514	511	1	591	38	0	
1	0	0	0	0	502	510	0	599	38	0	
2	0	0	0	0	513	512	0	609	38	0	
3	0	0	0	0	509	512	0	626	38	0	
4	0	0	0	0	511	511	0	646	38	0	
5	0	0	0	0	512	513	0	657	38	0	
6	0	0	0	0	511	513	0	665	38	0	
7	0	0	0	0	512	513	0	675	38	0	
8	0	0	0	0	510	515	1	682	38	0	
9	0	0	0	0	513	516	0	683	38	0	
10	0	0	0	0	513	515	0	683	38	0	
11	0	0	0	0	516	514	0	679	38	0	
12	0	0	0	0	512	515	1	669	38	0	
13	0	0	0	0	501	512	0	662	38	0	
14	0	0	0	0	509	513	0	645	38	0	
15	0	0	0	0	512	512	0	639	38	0	
0	0	0	0	0	502	512	1	639	38	0	
1	0	0	0	0	511	512	0	652	38	0	
2	0	0	0	0	510	513	0	669	38	0	
3	0	0	0	0	512	515	0	688	38	0	
4	0	0	0	0	508	514	1	711	38	0	
5	0	0	0	0	509	513	0	736	38	0	
6	0	0	0	0	509	513	0	752	38	0	
7	0	0	0	0	515	515	0	758	38	0	
8	0	0	0	0	511	513	1	761	38	0	
9	0	0	0	0	509	513	0	768	38	0	
10	0	0	0	0	508	515	0	774	38	0	
11	0	0	0	0	514	516	0	773	38	0	
12	0	0	0	0	517	515	1	772	38	0	
13	0	0	0	0	505	515	0	764	38	0	
14	0	0	0	0	506	515	0	755	38	0	
15	0	0	0	0	515	515	0	748	38	0	
0	0	0	0	0	509	514	0	743	38	0	
1	0	0	0	0	511	512	0	745	38	0	
2	0	0	0	0	511	512	0	748	38	0	
3	0	0	0	0	509	512	0	751	38	0	
4	0	0	0	0	509	513	1	749	38	0	
5	0	0	0	0	512	512	0	753	38	0	
6	0	0	0	0	508	512	0	751	38	0	
7	0	0	0	0	513	513	0	745	38	0	
8	0	0	0	0	503	511	1	741	38	0	
9	0	0	0	0	511	512	0	742	38	0	
10	0	0	0	0	507	511	0	737	38	0	
11	0	0	0	0	509	512	0	727	38	0	
12	0	0	0	0	511	512	1	713	38	0	
13	0	0	0	0	511	514	0	697	38	0	
14	0	0	0	0	508	515	0	680	38	0	
15	0	0	0	0	516	515	0	671	38	0	
0	0	0	0	0	513	515	1	661	38	0	
1	0	0	0	0	511	514	0	664	38	0	
2	0	0	0	0	500	512	0	669	38	0	
3	0	0	0	0	507	514	0	673	38	0	
4	0	0	0	0	510	515	1	675	38	0	
5	0	0	0	0	508	513	0	680	38	0	
6	0	0	0	0	511	513	0	679	38	0	
7	0	0	0	0	510	514	0	683	38	0	
8	0	0	0	0	514	513	1	687	38	0	
9	0	0	0	0	511	512	0	693	38	0	
10	0	0	0	0	508	512	0	696	38	0	
11	0	0	0	0	519	512	0	694	38	0	
12	0	0	0	0	516	512	1	687	38	0	
13	0	0	0	0	510	511	0	675	38	0	
14	0	0	0	0	512	512	0	662	38	0	
15	0	0	0	0	507	512	0	648	38	0	
0	0	0	0	0	511	510	1	637	38	0	
1	0	0	0	0	508	510	0	630	38	0	
2	0	0	0	0	514	507	0	630	38	0	
3	0	0	0	0	509	508	0	628	38	0	
4	0	0	0	0	509	510	1	624	38	0	
5	0	0	0	0	504	509	0	621	38	0	
6	0	0	0	0	508	511	0	618	38	0	
7	0	0	0	0	507	512	0	614	39	0	
8	0	0	0	0	508	511	0	615	38	0	
9	0	0	0	0	508	511	0	624	38	0	
10	0	0	0	0	512	510	0	633	38	0	
11	0	0	0	0	515	513	0	644	38	0	
12	0	0	0	0	508	512	1	649	38	0	
13	0	0	0	0	508	511	0	650	38	0	
14	0	0	0	0	508	513	0	640	38	0	
15	0	0	0	0	512	510	0	623	38	0	
0	0	0	0	0	513	511	1	606	38	0	
1	0	0	0	0	510	510	0	594	38	0	
2	0	0	0	0	511	509	0	585	38	0	
3	0	0	0	0	503	512	0	580	38	0	
4	0	0	0	0	513	512	1	572	38	0	
5	0	0	0	0	510	512	0	564	38	0	
6	0	0	0	0	511	512	0	562	38	0	
7	0	0	0	0	513	513	0	567	38	0	
8	0	0	0	0	509	512	1	572	38	0	
9	0	0	0	0	512	512	0	579	38	0	
10	0	0	0	0	520	511	0	583	38	0	
11	0	0	0	0	514	511	0	577	38	0	
12	0	0	0	0	509	510	1	571	38	0	
13	0	0	0	0	504	511	0	570	38	0	
14	0	0	0	0	511	511	0	571	38	0	
15	0	0	0	0	503	512	0	570	38	0	
0	0	0	0	0	511	511	1	565	38	0	
1	0	0	0	0	511	510	0	562	38	0	
2	0	0	0	0	502	512	0	567	38	0	
3	0	0	0	0	514	513	0	578	38	0	
4	0	0	0	0	512	515	1	582	38	0	
5	0	0	0	0	511	512	0	584	38	0	
6	0	0	0	0	507	511	0	588	38	0	
7	0	0	0	0	512	511	0	588	38	0	
8	0	0	0	0	507	511	1	584	38	0	
9	0	0	0	0	507	512	0	580	38	0	
10	0	0	0	0	515	513	0	579	38	0	
11	0	0	0	0	510	515	0	574	38	0	
12	0	0	0	0	516	515	1	572	38	0	
13	0	0	0	0	512	513	0	576	38	0	
14	0	0	0	0	504	514	0	578	38	0	
15	0	0	0	0	508	512	0	582	38	0	
0	0	0	0	0	511	512	1	580	38	0	
1	0	0	0	0	507	512	0	575	38	0	
2	0	0	0	0	510	511	0	572	38	0	
3	0	0	0	0	509	511	0	571	38	0	
4	0	0	0	0	509	513	1	564	38	0	
5	0	0	0	0	516	511	0	559	38	0	
6	0	0	0	0	508	512	0	559	38	0	
7	0	0	0	0	507	512	0	565	38	0	
8	0	0	0	0	508	514	1	568	38	0	
9	0	0	0	0	510	510	0	577	38	0	
10	0	0	0	0	508	511	0	591	38	0	
11	0	0	0	0	507	514	0	604	38	0	
12	0	0	0	0	511	513	1	614	38	0	
13	0	0	0	0	516	512	0	616	38	0	
14	0	0	0	0	514	512	0	613	38	0	
15	0	0	0	0	510	514	0	606	38	0	
0	0	0	0	0	513	514	1	595	38	0	
1	0	0	0	0	514	513	0	585	38	0	
2	0	0	0	0	505	514	0	577	38	0	
3	0	0	0	0	511	511	0	573	38	0	
4	0	0	0	0	502	512	0	567	38	0	
5	0	0	0	0	512	513	0	575	38	0	
6	0	0	0	0	507	514	0	585	38	0	
7	0	0	0	0	513	515	0	595	38	0	
8	0	0	0	0	520	515	0	604	38	0	
9	0	0	0	0	511	513	0	615	38	0	
10	0	0	0	0	505	514	0	628	38	0	
11	0	0	0	0	508	514	0	634	38	0	
12	0	0	0	0	512	513	1	639	38	0	
13	0	0	0	0	511	512	0	643	38	0	
14	0	0	0	0	510	511	0	643	38	0	
15	0	0	0	0	511	512	0	641	38	0	
0	0	0	0	0	506	513	1	634	38	0	
1	0	0	0	0	509	514	0	630	38	0	
2	0	0	0	0	503	514	0	623	38	0	
3	0	0	0	0	514	514	0	615	38	0	
4	0	0	0	0	513	515	1	611	38	0	
5	0	0	0	0	516	515	0	611	38	0	
6	0	0	0	0	502	514	0	615	38	0	
7	0	0	0	0	506	515	0	628	38	0	
8	0	0	0	0	515	513	0	641	38	0	
9	0	0	0	0	510	512	0	655	38	0	
10	0	0	0	0	515	514	0	671	38	0	
11	0	0	0	0	512	514	0	690	38	0	
12	0	0	0	0	511	515	1	696	38	0	
13	0	0	0	0	503	512	0	698	38	0	
14	0	0	0	0	510	513	0	696	38	0	
15	0	0	0	0	507	513	0	690	38	0	
0	0	0	0	0	510	514	1	685	38	0	
1	0	0	0	0	503	514	0	679	38	0	
2	0	0	0	0	518	515	0	668	38	0	
3	0	0	0	0	509	514	0	664	38	0	
4	0	0	0	0	509	513	1	658	38	0	
5	0	0	0	0	504	512	0	657	38	0	
6	0	0	0	0	508	511	0	659	39	0	
7	0	0	0	0	515	512	0	663	39	0	
8	0	0	0	0	513	510	0	660	39	0	
9	0	0	0	0	512	510	0	656	38	0	
10	0	0	0	0	510	509	0	660	38	0	
11	0	0	0	0	510	510	0	675	38	0	
12	0	0	0	0	509	511	1	687	38	0	
13	0	0	0	0	511	509	0	690	39	0	
14	0	0	0	0	515	511	0	687	39	0	
15	0	0	0	0	508	512	0	682	39	0	
0	0	0	0	0	515	512	0	683	38	0	
1	0	0	0	0	510	512	0	679	39	0	
2	0	0	0	0	512	511	0	676	38	0	
3	0	0	0	0	516	513	0	671	38	0	
4	0	0	0	0	506	510	1	657	38	0	
5	0	0	0	0	508	510	0	642	39	0	
6	0	0	0	0	508	512	0	623	39	0	
7	0	0	0	0	514	514	0	607	39	0	
8	0	0	0	0	516	513	1	595	39	0	
9	0	0	0	0	510	510	0	599	39	0	
10	0	0	0	0	513	508	0	608	39	0	
11	0	0	0	0	504	507	0	617	39	0	
12	0	0	0	0	512	508	0	624	39	0	
13	0	0	0	0	510	509	0	623	39	0	
14	0	0	0	0	509	511	0	628	39	0	
15	0	0	0	0	508	513	0	630	39	0	
0	0	0	0	0	504	515	1	631	39	0	
1	0	0	0	0	508	515	0	631	38	0	
2	0	0	0	0	513	516	0	638	38	0	
3	0	0	0	0	518	517	0	643	38	0	
4	0	0	0	0	520	514	0	643	39	0	
5	0	0	0	0	511	515	0	637	38	0	
6	0	0	0	0	510	514	0	638	38	0	
7	0	0	0	0	511	514	0	642	38	0	
8	0	0	0	0	509	513	0	656	38	0	
9	0	0	0	0	509	512	0	675	38	0	
10	0	0	0	0	513	512	0	695	38	0	
11	0	0	0	0	507	513	0	706	38	0	
12	0	0	0	0	511	511	1	707	38	0	
13	0	0	0	0	508	511	0	704	38	0	
14	0	0	0	0	513	512	0	699	38	0	
15	0	0	0	0	511	514	0	684	38	0	
0	0	0	0	0	508	515	1	666	38	0	
1	0	0	0	0	512	515	0	651	38	0	
2	0	0	0	0	509	516	0	643	38	0	
3	0	0	0	0	507	516	0	642	38	0	
4	0	0	0	0	508	514	0	645	38	0	
5	0	0	0	0	505	513	0	653	38	0	
6	0	0	0	0	515	512	0	660	38	0	
7	0	0	0	0	514	512	0	667	38	0	
8	0	0	0	0	510	513	0	674	38	0	
9	0	0	0	0	512	513	0	680	38	0	
10	0	0	0	0	501	512	0	688	38	0	
11	0	0	0	0	513	512	0	696	38	0	
12	0	0	0	0	511	512	1	702	38	0	
13	0	0	0	0	512	511	0	703	38	0	
14	0	0	0	0	517	513	0	698	38	0	
15	0	0	0	0	506	513	0	693	38	0	
0	0	0	0	0	513	512	1	699	38	0	
1	0	0	0	0	510	510	0	679	38	0	
2	0	0	0	0	515	512	0	670	38	0	
3	0	0	0	0	507	513	0	656	38	0	
4	0	0	0	0	506	514	1	643	38	0	
5	0	0	0	0	511	515	0	632	38	0	
6	0	0	0	0	511	513	0	627	38	0	
7	0	0	0	0	508	513	0	636	38	0	
8	0	0	0	0	512	514	1	629	38	0	
9	0	0	0	0	510	512	0	637	38	0	
10	0	0	0	0	511	515	0	639	38	0	
11	0	0	0	0	506	515	0	637	38	0	
12	0	0	0	0	513	514	0	628	38	0	
13	0	0	0	0	511	514	0	617	38	0	
14	0	0	0	0	507	513	0	607	38	0	
15	0	0	0	0	510	513	0	595	38	0	
0	0	0	0	0	511	511	1	583	38	0	
1	0	0	0	0	514	511	0	581	38	0	
2	0	0	0	0	513	511	0	585	38	0	
3	0	0	0	0	505	513	0	581	38	0	
4	0	0	0	0	511	512	1	581	38	0	
5	0	0	0	0	503	513	0	581	38	0	
6	0	0	0	0	509	512	0	593	38	0	
7	0	0	0	0	510	512	0	577	38	0	
8	0	0	0	0	509	512	1	578	38	0	
9	0	0	0	0	505	511	0	581	38	0	
10	0	0	0	0	512	511	0	592	38	0	
11	0	0	0	0	511	511	0	609	38	0	
12	0	0	0	0	515	512	1	624	38	0	
13	0	0	0	0	510	512	0	628	38	0	
14	0	0	0	0	508	514	0	624	38	0	
15	0	0	0	0	508	515	0	620	38	0	
0	0	0	0	0	507	513	0	612	38	0	
1	0	0	0	0	508	512	0	610	38	0	
2	0	0	0	0	510	514	0	614	38	0	
3	0	0	0	0	515	513	0	616	38	0	
4	0	0	0	0	512	515	1	616	38	0	
5	0	0	0	0	513	513	0	614	38	0	
6	0	0	0	0	509	512	0	614	38	0	
7	0	0	0	0	514	513	0	617	39	0	
8	0	0	0	0	508	513	1	615	38	0	
9	0	0	0	0	509	513	0	614	38	0	
10	0	0	0	0	511	512	0	615	38	0	
11	0	0	0	0	515	513	0	614	38	0	
12	0	0	0	0	505	514	1	615	38	0	
13	0	0	0	0	510	512	0	611	38	0	
14	0	0	0	0	506	512	0	614	38	0	
15	0	0	0	0	503	512	0	621	38	0	
0	0	0	0	0	512	514	1	631	38	0	
1	0	0	0	0	509	512	0	641	38	0	
2	0	0	0	0	514	512	0	646	38	0	
3	0	0	0	0	516	513	0	644	38	0	
4	0	0	0	0	507	513	1	643	38	0	
5	0	0	0	0	511	510	0	642	38	0	
6	0	0	0	0	509	511	0	645	38	0	
7	0	0	0	0	512	511	0	648	39	0	
8	0	0	0	0	515	511	1	652	38	0	
9	0	0	0	0	509	510	0	647	39	0	
10	0	0	0	0	508	510	0	640	39	0	
11	0	0	0	0	505	510	0	629	39	0	
12	0	0	0	0	516	512	1	627	39	0	
13	0	0	0	0	515	510	0	631	39	0	
14	0	0	0	0	511	511	0	632	39	0	
15	0	0	0	0	504	513	0	640	39	0	
0	0	0	0	0	508	511	0	641	39	0	
1	0	0	0	0	513	512	0	638	39	0	
2	0	0	0	0	509	513	0	639	38	0	
3	0	0	0	0	515	514	0	643	38	0	
4	0	0	0	0	514	513	1	638	39	0	
5	0	0	0	0	511	513	0	636	39	0	
6	0	0	0	0	512	514	0	632	39	0	
7	0	0	0	0	501	514	0	635	39	0	
8	0	0	0	0	514	514	1	634	39	0	
9	0	0	0	0	512	512	0	630	39	0	
10	0	0	0	0	510	515	0	628	39	0	
11	0	0	0	0	499	515	0	623	39	0	
12	0	0	0	0	511	516	1	617	39	0	
13	0	0	0	0	509	515	0	621	39	0	
14	0	0	0	0	511	515	0	633	39	0	
15	0	0	0	0	508	514	0	650	39	0	
0	0	0	0	0	510	512	1	661	39	0	
1	0	0	0	0	505	511	0	670	39	0	
2	0	0	0	0	507	512	0	674	39	0	
3	0	0	0	0	509	512	0	670	39	0	
4	0	0	0	0	510	513	1	666	39	0	
5	0	0	0	0	511	511	0	668	38	0	
6	0	0	0	0	515	512	0	673	38	0	
7	0	0	0	0	517	513	0	680	38	0	
8	0	0	0	0	512	514	1	683	38	0	
9	0	0	0	0	515	515	0	685	38	0	
10	0	0	0	0	503	516	0	683	38	0	
11	0	0	0	0	513	516	0	679	38	0	
12	0	0	0	0	516	516	1	670	38	0	
13	0	0	0	0	504	514	0	664	38	0	
14	0	0	0	0	510	513	0	659	38	0	
15	0	0	0	0	508	514	0	659	38	0	
0	0	0	0	0	512	513	1	655	38	0	
1	0	0	0	0	515	511	0	648	38	0	
2	0	0	0	0	511	512	0	638	38	0	
3	0	0	0	0	508	513	0	633	38	0	
4	0	0	0	0	509	515	1	633	38	0	
5	0	0	0	0	514	511	0	636	38	0	
6	0	0	0	0	506	513	0	640	38	0	
7	0	0	0	0	505	515	0	647	38	0	
8	0	0	0	0	511	513	0	649	38	0	
9	0	0	0	0	512	511	0	643	38	0	
10	0	0	0	0	507	512	0	632	38	0	
11	0	0	0	0	515	512	0	618	38	0	
12	0	0	0	0	507	513	1	601	38	0	
13	0	0	0	0	513	511	0	588	38	0	
14	0	0	0	0	507	513	0	585	38	0	
15	0	0	0	0	508	512	0	588	38	0	
0	0	0	0	0	515	510	0	592	38	0	
1	0	0	0	0	514	510	0	596	38	0	
2	0	0	0	0	505	512	0	598	38	0	
3	0	0	0	0	510	513	0	598	38	0	
4	0	0	0	0	504	512	0	603	38	0	
5	0	0	0	0	511	513	0	610	38	0	
6	0	0	0	0	511	514	0	629	38	0	
7	0	0	0	0	513	514	0	632	38	0	
8	0	0	0	0	518	514	1	630	38	0	
9	0	0	0	0	504	513	0	623	38	0	
10	0	0	0	0	508	511	0	608	38	0	
11	0	0	0	0	515	512	0	592	38	0	
12	0	0	0	0	513	511	0	585	38	0	
13	0	0	0	0	506	512	0	584	38	0	
14	0	0	0	0	505	511	0	590	38	0	
15	0	0	0	0	511	512	0	591	38	0	
0	0	0	0	0	516	512	1	588	38	0	
1	0	0	0	0	513	513	0	594	38	0	
2	0	0	0	0	511	513	0	604	38	0	
3	0	0	0	0	510	514	0	619	38	0	
4	0	0	0	0	517	513	1	630	38	0	
5	0	0	0	0	501	511	0	653	38	0	
6	0	0	0	0	512	510	0	646	38	0	
7	0	0	0	0	510	511	0	653	38	0	
8	0	0	0	0	507	511	0	654	38	0	
9	0	0	0	0	500	510	0	650	38	0	
10	0	0	0	0	508	511	0	644	38	0	
11	0	0	0	0	509	511	0	637	38	0	
12	0	0	0	0	508	510	0	628	38	0	
13	0	0	0	0	506	509	0	627	38	0	
14	0	0	0	0	512	510	0	627	38	0	
15	0	0	0	0	508	511	0	627	38	0	
0	0	0	0	0	512	511	0	627	38	0	
1	0	0	0	0	511	512	0	619	38	0	
2	0	0	0	0	513	512	0	617	38	0	
3	0	0	0	0	518	515	0	616	38	0	
4	0	0	0	0	510	514	1	615	38	0	
5	0	0	0	0	510	511	0	615	38	0	
6	0	0	0	0	506	511	0	614	38	0	
7	0	0	0	0	508	510	0	615	38	0	
8	0	0	0	0	506	511	1	611	38	0	
9	0	0	0	0	509	510	0	607	38	0	
10	0	0	0	0	511	511	0	606	38	0	
11	0	0	0	0	507	511	0	609	38	0	
12	0	0	0	0	516	513	1	615	38	0	
13	0	0	0	0	520	511	0	620	38	0	
14	0	0	0	0	514	512	0	620	38	0	
15	0	0	0	0	516	510	0	619	38	0	
0	0	0	0	0	511	511	1	619	38	0	
1	0	0	0	0	508	512	0	624	38	0	
2	0	0	0	0	509	512	0	633	38	0	
3	0	0	0	0	508	511	0	639	38	0	
4	0	0	0	0	513	511	0	644	38	0	
5	0	0	0	0	512	512	0	645	38	0	
6	0	0	0	0	504	513	0	644	38	0	
7	0	0	0	0	507	512	0	643	38	0	
8	0	0	0	0	501	511	1	640	38	0	
9	0	0	0	0	504	509	0	636	38	0	
10	0	0	0	0	516	512	0	636	38	0	
11	0	0	0	0	514	513	0	636	38	0	
12	0	0	0	0	508	514	1	640	38	0	
13	0	0	0	0	513	512	0	649	38	0	
14	0	0	0	0	512	513	0	658	38	0	
15	0	0	0	0	510	513	0	661	38	0	
0	0	0	0	0	509	513	1	653	38	0	
1	0	0	0	0	509	513	0	643	38	0	
2	0	0	0	0	514	511	0	636	38	0	
3	0	0	0	0	512	509	0	643	38	0	
4	0	0	0	0	507	509	1	654	38	0	
5	0	0	0	0	511	508	0	665	38	0	
6	0	0	0	0	512	510	0	675	38	0	
7	0	0	0	0	510	511	0	678	38	0	
8	0	0	0	0	510	510	1	681	38	0	
9	0	0	0	0	508	513	0	690	38	0	
10	0	0	0	0	509	512	0	704	38	0	
11	0	0	0	0	508	512	0	714	38	0	
12	0	0	0	0	518	512	1	719	38	0	
13	0	0	0	0	513	511	0	722	38	0	
14	0	0	0	0	514	511	0	714	38	0	
15	0	0	0	0	517	513	0	698	38	0	
0	0	0	0	0	503	513	1	675	38	0	
1	0	0	0	0	513	510	0	652	38	0	
2	0	0	0	0	511	509	0	632	38	0	
3	0	0	0	0	512	510	0	613	38	0	
4	0	0	0	0	509	511	1	601	38	0	
5	0	0	0	0	514	509	0	601	38	0	
6	0	0	0	0	512	509	0	603	38	0	
7	0	0	0	0	508	510	0	605	38	0	
8	0	0	0	0	512	512	1	601	38	0	
9	0	0	0	0	512	511	0	598	38	0	
10	0	0	0	0	505	511	0	595	38	0	
11	0	0	0	0	511	512	0	591	38	0	
12	0	0	0	0	507	512	1	587	38	0	
13	0	0	0	0	505	511	0	588	38	0	
14	0	0	0	0	507	511	0	570	38	0	
15	0	0	0	0	510	510	0	571	38	0	
0	0	0	0	0	513	511	1	574	38	0	
1	0	0	0	0	501	510	0	578	38	0	
2	0	0	0	0	510	512	0	579	38	0	
3	0	0	0	0	513	513	0	596	38	0	
4	0	0	0	0	515	512	0	589	38	0	
5	0	0	0	0	507	513	0	595	38	0	
6	0	0	0	0	517	514	0	600	38	0	
7	0	0	0	0	516	514	0	603	38	0	
8	0	0	0	0	511	514	1	611	38	0	
9	0	0	0	0	509	513	0	620	38	0	
10	0	0	0	0	514	515	0	628	38	0	
11	0	0	0	0	511	512	0	632	38	0	
12	0	0	0	0	512	512	1	637	38	0	
13	0	0	0	0	511	511	0	641	38	0	
14	0	0	0	0	510	511	0	647	38	0	
15	0	0	0	0	507	513	0	664	38	0	
0	0	0	0	0	500	515	1	682	38	0	
1	0	0	0	0	512	514	0	695	38	0	
2	0	0	0	0	511	514	0	711	38	0	
3	0	0	0	0	510	511	0	723	38	0	
4	0	0	0	0	509	510	1	723	38	0	
5	0	0	0	0	510	510	0	719	38	0	
6	0	0	0	0	517	510	0	709	38	0	
7	0	0	0	0	509	511	0	702	38	0	
8	0	0	0	0	513	511	1	692	38	0	
9	0	0	0	0	513	512	0	683	38	0	
10	0	0	0	0	508	511	0	666	38	0	
11	0	0	0	0	511	513	0	644	38	0	
12	0	0	0	0	512	510	1	621	38	0	
13	0	0	0	0	514	509	0	604	38	0	
14	0	0	0	0	511	509	0	590	38	0	
15	0	0	0	0	505	511	0	578	38	0	
0	0	0	0	0	511	512	1	568	38	0	
1	0	0	0	0	514	512	0	559	38	0	
2	0	0	0	0	510	513	0	552	38	0	
3	0	0	0	0	506	515	0	548	38	0	
4	0	0	0	0	510	515	1	546	38	0	
5	0	0	0	0	508	512	0	546	38	0	
6	0	0	0	0	510	513	0	557	38	0	
7	0	0	0	0	518	515	0	564	38	0	
8	0	0	0	0	510	514	1	567	38	0	
9	0	0	0	0	512	513	0	571	38	0	
10	0	0	0	0	513	515	0	580	38	0	
11	0	0	0	0	502	514	0	589	38	0	
12	0	0	0	0	512	515	1	599	38	0	
13	0	0	0	0	510	513	0	606	38	0	
14	0	0	0	0	511	515	0	609	38	0	
15	0	0	0	0	508	514	0	606	38	0	
0	0	0	0	0	508	514	0	603	38	0	
1	0	0	0	0	511	512	0	596	38	0	
2	0	0	0	0	511	513	0	590	38	0	
3	0	0	0	0	512	515	0	577	38	0	
4	0	0	0	0	506	515	0	569	38	0	
5	0	0	0	0	505	517	0	567	38	0	
6	0	0	0	0	513	517	0	568	38	0	
7	0	0	0	0	508	517	0	567	38	0	
8	0	0	0	0	508	515	1	568	38	0	
9	0	0	0	0	518	513	0	576	38	0	
10	0	0	0	0	513	512	0	591	38	0	
11	0	0	0	0	516	510	0	603	38	0	
12	0	0	0	0	510	509	0	610	38	0	
13	0	0	0	0	506	511	0	621	38	0	
14	0	0	0	0	508	513	0	600	38	0	
15	0	0	0	0	510	513	0	592	38	0	
0	0	0	0	0	515	513	0	583	38	0	
1	0	0	0	0	504	513	0	578	38	0	
2	0	0	0	0	507	513	0	579	38	0	
3	0	0	0	0	506	513	0	579	38	0	
4	0	0	0	0	516	513	1	579	38	0	
5	0	0	0	0	509	513	0	581	38	0	
6	0	0	0	0	512	512	0	588	38	0	
7	0	0	0	0	516	514	0	599	38	0	
8	0	0	0	0	507	513	1	606	38	0	
9	0	0	0	0	504	515	0	605	38	0	
10	0	0	0	0	514	514	0	606	38	0	
11	0	0	0	0	505	513	0	608	38	0	
12	0	0	0	0	506	512	1	618	38	0	
13	0	0	0	0	520	512	0	608	38	0	
14	0	0	0	0	512	512	0	611	38	0	
15	0	0	0	0	513	512	0	615	38	0	
0	0	0	0	0	510	513	0	620	38	0	
1	0	0	0	0	510	511	0	626	38	0	
2	0	0	0	0	510	512	0	633	38	0	
3	0	0	0	0	516	513	0	640	38	0	
4	0	0	0	0	516	512	0	646	38	0	
5	0	0	0	0	507	511	0	653	38	0	
6	0	0	0	0	512	512	0	660	38	0	
7	0	0	0	0	517	513	0	664	38	0	
8	0	0	0	0	507	511	1	668	38	0	
9	0	0	0	0	507	511	0	672	38	0	
10	0	0	0	0	503	512	0	676	38	0	
11	0	0	0	0	505	512	0	674	38	0	
12	0	0	0	0	510	513	1	665	38	0	
13	0	0	0	0	510	511	0	660	38	0	
14	0	0	0	0	507	512	0	660	38	0	
15	0	0	0	0	514	512	0	657	38	0	
0	0	0	0	0	510	511	0	652	38	0	
1	0	0	0	0	515	513	0	635	38	0	
2	0	0	0	0	511	514	0	609	38	0	
3	0	0	0	0	512	513	0	587	38	0	
4	0	0	0	0	518	513	0	573	38	0	
5	0	0	0	0	512	516	0	568	38	0	
6	0	0	0	0	504	516	0	571	38	0	
7	0	0	0	0	506	515	0	571	38	0	
8	0	0	0	0	508	515	0	568	38	0	
9	0	0	0	0	515	515	0	563	38	0	
10	0	0	0	0	505	514	0	570	38	0	
11	0	0	0	0	512	515	0	578	38	0	
12	0	0	0	0	510	515	0	584	38	0	
13	0	0	0	0	511	514	0	587	38	0	
14	0	0	0	0	510	514	0	589	38	0	
15	0	0	0	0	503	513	0	587	38	0	
0	0	0	0	0	508	513	0	582	38	0	
1	0	0	0	0	508	512	0	575	38	0	
2	0	0	0	0	515	514	0	566	38	0	
3	0	0	0	0	507	513	0	555	38	0	
4	0	0	0	0	515	515	1	540	38	0	
5	0	0	0	0	510	514	0	527	38	0	
6	0	0	0	0	512	512	0	518	38	0	
7	0	0	0	0	513	512	0	513	38	0	
8	0	0	0	0	510	513	1	514	38	0	
9	0	0	0	0	507	513	0	530	38	0	
10	0	0	0	0	511	513	0	547	38	0	
11	0	0	0	0	513	513	0	562	38	0	
12	0	0	0	0	517	512	0	567	38	0	
13	0	0	0	0	505	512	0	568	38	0	
14	0	0	0	0	511	511	0	569	38	0	
15	0	0	0	0	518	512	0	573	38	0	
0	0	0	0	0	516	513	1	565	38	0	
1	0	0	0	0	509	513	0	560	38	0	
2	0	0	0	0	510	515	0	551	38	0	
3	0	0	0	0	508	516	0	537	38	0	
4	0	0	0	0	516	516	1	522	38	0	
5	0	0	0	0	504	513	0	518	38	0	
6	0	0	0	0	507	515	0	520	38	0	
7	0	0	0	0	510	516	0	523	38	0	
8	0	0	0	0	503	517	0	523	38	0	
9	0	0	0	0	506	515	0	523	38	0	
10	0	0	0	0	511	515	0	519	38	0	
11	0	0	0	0	511	515	0	516	38	0	
12	0	0	0	0	515	514	0	513	38	0	
13	0	0	0	0	510	513	0	509	38	0	
14	0	0	0	0	516	512	0	499	38	0	
15	0	0	0	0	503	510	0	494	38	0	
0	0	0	0	0	515	512	1	490	38	0	
1	0	0	0	0	510	514	0	497	38	0	
2	0	0	0	0	507	513	0	494	38	0	
3	0	0	0	0	509	515	0	495	38	0	
4	0	0	0	0	512	515	1	492	38	0	
5	0	0	0	0	507	512	0	495	38	0	
6	0	0	0	0	517	513	0	494	38	0	
7	0	0	0	0	504	513	0	489	38	0	
8	0	0	0	0	510	511	1	481	38	0	
9	0	0	0	0	510	511	0	492	38	0	
10	0	0	0	0	514	513	0	490	38	0	
11	0	0	0	0	514	512	0	499	38	0	
12	0	0	0	0	505	511	0	508	38	0	
13	0	0	0	0	509	510	0	529	38	0	
14	0	0	0	0	506	511	0	543	38	0	
15	0	0	0	0	503	511	0	558	38	0	
0	0	0	0	0	509	512	1	566	38	0	
1	0	0	0	0	506	511	0	571	38	0	
2	0	0	0	0	511	511	0	569	38	0	
3	0	0	0	0	513	510	0	557	38	0	
4	0	0	0	0	508	509	0	541	38	0	
5	0	0	0	0	517	508	0	530	38	0	
6	0	0	0	0	513	509	0	520	38	0	
7	0	0	0	0	507	510	0	514	38	0	
8	0	0	0	0	507	512	1	509	38	0	
9	0	0	0	0	512	511	0	514	38	0	
10	0	0	0	0	523	511	0	526	38	0	
11	0	0	0	0	511	511	0	541	38	0	
12	0	0	0	0	511	512	1	551	38	0	
13	0	0	0	0	508	508	0	561	38	0	
14	0	0	0	0	518	509	0	558	38	0	
15	0	0	0	0	508	512	0	548	38	0	
0	0	0	0	0	504	513	0	544	38	0	
1	0	0	0	0	508	512	0	536	38	0	
2	0	0	0	0	510	512	0	531	38	0	
3	0	0	0	0	508	514	0	527	38	0	
4	0	0	0	0	516	513	1	521	38	0	
5	0	0	0	0	506	512	0	518	38	0	
6	0	0	0	0	514	511	0	521	38	0	
7	0	0	0	0	505	513	0	525	38	0	
8	0	0	0	0	507	511	1	526	38	0	
9	0	0	0	0	505	509	0	527	38	0	
10	0	0	0	0	509	511	0	529	38	0	
11	0	0	0	0	517	512	0	528	38	0	
12	0	0	0	0	513	512	1	529	38	0	
13	0	0	0	0	512	511	0	532	38	0	
14	0	0	0	0	510	510	0	538	38	0	
15	0	0	0	0	511	509	0	546	38	0	
0	0	0	0	0	507	508	1	551	38	0	
1	0	0	0	0	510	509	0	551	38	0	
2	0	0	0	0	510	510	0	549	38	0	
3	0	0	0	0	514	511	0	547	38	0	
4	0	0	0	0	510	515	1	540	38	0	
5	0	0	0	0	504	513	0	534	38	0	
6	0	0	0	0	508	513	0	535	38	0	
7	0	0	0	0	507	511	0	528	38	0	
8	0	0	0	0	514	510	1	518	38	0	
9	0	0	0	0	513	509	0	521	38	0	
10	0	0	0	0	513	510	0	523	38	0	
11	0	0	0	0	509	512	0	527	38	0	
12	0	0	0	0	511	512	0	527	38	0	
13	0	0	0	0	509	511	0	528	38	0	
14	0	0	0	0	509	512	0	524	38	0	
15	0	0	0	0	515	513	0	523	38	0	
0	0	0	0	0	518	515	1	521	38	0	
1	0	0	0	0	504	513	0	518	38	0	
2	0	0	0	0	506	512	0	504	38	0	
3	0	0	0	0	507	510	0	494	38	0	
4	0	0	0	0	510	510	1	480	38	0	
5	0	0	0	0	513	510	0	471	38	0	
6	0	0	0	0	519	509	0	466	38	0	
7	0	0	0	0	509	511	0	470	38	0	
8	0	0	0	0	505	510	0	473	38	0	
9	0	0	0	0	503	510	0	475	38	0	
10	0	0	0	0	509	511	0	478	38	0	
11	0	0	0	0	504	512	0	486	38	0	
12	0	0	0	0	517	512	1	492	38	0	
13	0	0	0	0	519	512	0	499	38	0	
14	0	0	0	0	514	513	0	501	38	0	
15	0	0	0	0	509	514	0	500	38	0	
0	0	0	0	0	508	512	0	503	38	0	
1	0	0	0	0	515	512	0	492	38	0	
2	0	0	0	0	503	511	0	488	38	0	
3	0	0	0	0	519	511	0	483	38	0	
4	0	0	0	0	514	511	0	483	38	0	
5	0	0	0	0	502	511	0	492	38	0	
6	0	0	0	0	504	510	0	500	38	0	
7	0	0	0	0	516	511	0	501	38	0	
8	0	0	0	0	507	512	1	497	38	0	
9	0	0	0	0	504	510	0	492	38	0	
10	0	0	0	0	511	510	0	485	38	0	
11	0	0	0	0	509	513	0	476	37	0	
12	0	0	0	0	511	513	0	462	38	0	
13	0	0	0	0	512	513	0	450	38	0	
14	0	0	0	0	511	513	0	442	38	0	
15	0	0	0	0	510	513	0	437	38	0	
0	0	0	0	0	515	515	1	432	38	0	
1	0	0	0	0	509	514	0	427	38	0	
2	0	0	0	0	510	516	0	420	38	0	
3	0	0	0	0	510	518	0	414	38	0	
4	0	0	0	0	506	516	1	409	38	0	
5	0	0	0	0	508	513	0	406	38	0	
6	0	0	0	0	513	513	0	403	38	0	
7	0	0	0	0	512	512	0	404	38	0	
8	0	0	0	0	511	511	0	408	38	0	
9	0	0	0	0	508	511	0	409	38	0	
10	0	0	0	0	506	510	0	410	38	0	
11	0	0	0	0	511	510	0	408	38	0	
12	0	0	0	0	511	510	1	404	38	0	
13	0	0	0	0	504	511	0	406	38	0	
14	0	0	0	0	515	511	0	409	38	0	
15	0	0	0	0	515	513	0	409	38	0	
0	0	0	0	0	505	511	0	406	38	0	
1	0	0	0	0	505	510	0	407	38	0	
2	0	0	0	0	511	511	0	414	38	0	
3	0	0	0	0	510	512	0	422	38	0	
4	0	0	0	0	512	513	1	429	38	0	
5	0	0	0	0	504	513	0	436	38	0	
6	0	0	0	0	509	513	0	435	38	0	
7	0	0	0	0	511	513	0	431	38	0	
8	0	0	0	0	511	512	1	424	38	0	
9	0	0	0	0	503	512	0	419	38	0	
10	0	0	0	0	519	512	0	411	38	0	
11	0	0	0	0	514	515	0	412	38	0	
12	0	0	0	0	511	515	1	426	38	0	
13	0	0	0	0	511	515	0	434	38	0	
14	0	0	0	0	515	512	0	450	38	0	
15	0	0	0	0	507	512	0	463	38	0	
0	0	0	0	0	515	513	0	466	38	0	
1	0	0	0	0	507	511	0	467	38	0	
2	0	0	0	0	509	512	0	474	38	0	
3	0	0	0	0	508	512	0	483	38	0	
4	0	0	0	0	508	512	1	481	38	0	
5	0	0	0	0	511	512	0	479	38	0	
6	0	0	0	0	510	513	0	472	38	0	
7	0	0	0	0	515	511	0	464	38	0	
8	0	0	0	0	508	512	1	448	38	0	
9	0	0	0	0	513	511	0	441	38	0	
10	0	0	0	0	509	510	0	434	38	0	
11	0	0	0	0	506	510	0	429	38	0	
12	0	0	0	0	506	508	0	429	38	0	
13	0	0	0	0	507	508	0	426	38	0	
14	0	0	0	0	510	509	0	424	38	0	
15	0	0	0	0	513	510	0	424	38	0	
0	0	0	0	0	509	510	1	423	38	0	
1	0	0	0	0	511	512	0	408	38	0	
2	0	0	0	0	507	513	0	396	38	0	
3	0	0	0	0	507	515	0	387	38	0	
4	0	0	0	0	520	514	1	380	38	0	
5	0	0	0	0	513	514	0	381	38	0	
6	0	0	0	0	514	513	0	377	38	0	
7	0	0	0	0	513	513	0	370	38	0	
8	0	0	0	0	504	514	1	367	38	0	
9	0	0	0	0	513	513	0	363	38	0	
10	0	0	0	0	512	512	0	355	38	0	
11	0	0	0	0	515	513	0	348	38	0	
12	0	0	0	0	513	515	1	344	38	0	
13	0	0	0	0	504	514	0	344	38	0	
14	0	0	0	0	506	512	0	345	38	0	
15	0	0	0	0	513	511	0	352	38	0	
0	0	0	0	0	503	511	1	361	38	0	
1	0	0	0	0	512	511	0	380	38	0	
2	0	0	0	0	508	509	0	409	38	0	
3	0	0	0	0	508	510	0	439	38	0	
4	0	0	0	0	513	511	1	470	38	0	
5	0	0	0	0	513	510	0	496	38	0	
6	0	0	0	0	517	511	0	511	38	0	
7	0	0	0	0	509	512	0	521	38	0	
8	0	0	0	0	511	513	1	525	38	0	
9	0	0	0	0	517	513	0	532	38	0	
10	0	0	0	0	511	514	0	536	38	0	
11	0	0	0	0	509	514	0	537	38	0	
12	0	0	0	0	511	512	0	533	38	0	
13	0	0	0	0	504	513	0	525	38	0	
14	0	0	0	0	515	512	0	516	38	0	
15	0	0	0	0	505	512	0	507	38	0	
0	0	0	0	0	514	510	1	499	38	0	
1	0	0	0	0	507	510	0	492	38	0	
2	0	0	0	0	514	512	0	486	38	0	
3	0	0	0	0	509	512	0	481	38	0	
4	0	0	0	0	510	512	0	479	38	0	
5	0	0	0	0	511	512	0	476	38	0	
6	0	0	0	0	511	512	0	471	38	0	
7	0	0	0	0	504	510	0	462	38	0	
8	0	0	0	0	510	510	0	454	38	0	
9	0	0	0	0	512	510	0	448	38	0	
10	0	0	0	0	506	511	0	446	38	0	
11	0	0	0	0	517	513	0	450	38	0	
12	0	0	0	0	508	512	1	459	38	0	
13	0	0	0	0	511	511	0	471	38	0	
14	0	0	0	0	508	511	0	478	38	0	
15	0	0	0	0	515	511	0	465	38	0	
0	0	0	0	0	509	510	1	435	38	0	
1	0	0	0	0	515	508	0	404	38	0	
2	0	0	0	0	505	511	0	385	38	0	
3	0	0	0	0	513	510	0	382	38	0	
4	0	0	0	0	503	513	1	392	38	0	
5	0	0	0	0	510	513	0	415	38	0	
6	0	0	0	0	516	512	0	445	38	0	
7	0	0	0	0	508	511	0	463	38	0	
8	0	0	0	0	511	511	1	472	38	0	
9	0	0	0	0	513	510	0	478	38	0	
10	0	0	0	0	515	510	0	492	38	0	
11	0	0	0	0	513	512	0	487	38	0	
12	0	0	0	0	504	512	1	491	38	0	
13	0	0	0	0	508	510	0	500	38	0	
14	0	0	0	0	520	511	0	490	38	0	
15	0	0	0	0	505	511	0	487	38	0	
0	0	0	0	0	515	510	1	479	38	0	
1	0	0	0	0	509	510	0	468	38	0	
2	0	0	0	0	505	512	0	466	38	0	
3	0	0	0	0	515	513	0	474	38	0	
4	0	0	0	0	511	512	0	478	38	0	
5	0	0	0	0	504	511	0	469	38	0	
6	0	0	0	0	504	511	0	467	38	0	
7	0	0	0	0	513	512	0	467	38	0	
8	0	0	0	0	505	512	1	470	38	0	
9	0	0	0	0	512	511	0	478	38	0	
10	0	0	0	0	511	513	0	484	38	0	
11	0	0	0	0	517	513	0	490	38	0	
12	0	0	0	0	512	514	1	493	38	0	
13	0	0	0	0	513	510	0	494	38	0	
14	0	0	0	0	512	510	0	491	38	0	
15	0	0	0	0	512	510	0	486	38	0	
0	0	0	0	0	510	510	1	483	38	0	
1	0	0	0	0	505	509	0	487	38	0	
2	0	0	0	0	505	511	0	488	38	0	
3	0	0	0	0	511	511	0	487	38	0	
4	0	0	0	0	518	509	0	485	38	0	
5	0	0	0	0	515	510	0	481	38	0	
6	0	0	0	0	512	512	0	481	38	0	
7	0	0	0	0	511	513	0	485	38	0	
8	0	0	0	0	506	512	1	489	38	0	
9	0	0	0	0	516	512	0	497	38	0	
10	0	0	0	0	510	512	0	505	38	0	
11	0	0	0	0	503	511	0	503	38	0	
12	0	0	0	0	511	511	1	487	38	0	
13	0	0	0	0	512	513	0	474	38	0	
14	0	0	0	0	513	512	0	466	38	0	
15	0	0	0	0	508	511	0	464	38	0	
0	0	0	0	0	516	511	0	466	38	0	
1	0	0	0	0	512	514	0	478	38	0	
2	0	0	0	0	513	513	0	490	38	0	
3	0	0	0	0	504	512	0	495	38	0	
4	0	0	0	0	508	510	1	498	38	0	
5	0	0	0	0	509	505	0	501	38	0	
6	0	0	0	0	507	505	0	498	38	0	
7	0	0	0	0	508	508	0	495	38	0	
8	0	0	0	0	507	508	1	486	38	0	
9	0	0	0	0	511	508	0	478	38	0	
10	0	0	0	0	519	510	0	470	38	0	
11	0	0	0	0	514	512	0	469	38	0	
12	0	0	0	0	515	515	1	473	38	0	
13	0	0	0	0	506	513	0	483	38	0	
14	0	0	0	0	506	514	0	493	38	0	
15	0	0	0	0	512	515	0	500	38	0	
0	0	0	0	0	510	515	0	512	38	0	
1	0	0	0	0	513	515	0	508	38	0	
2	0	0	0	0	510	515	0	501	38	0	
3	0	0	0	0	506	513	0	497	38	0	
4	0	0	0	0	508	513	0	496	38	0	
5	0	0	0	0	505	512	0	489	38	0	
6	0	0	0	0	515	511	0	486	38	0	
7	0	0	0	0	516	511	0	482	38	0	
8	0	0	0	0	508	511	1	476	38	0	
9	0	0	0	0	506	510	0	476	38	0	
10	0	0	0	0	508	509	0	476	38	0	
11	0	0	0	0	511	511	0	475	38	0	
12	0	0	0	0	512	513	1	476	38	0	
13	0	0	0	0	514	511	0	486	38	0	
14	0	0	0	0	516	510	0	487	38	0	
15	0	0	0	0	509	511	0	494	38	0	
0	0	0	0	0	511	508	0	496	38	0	
1	0	0	0	0	509	509	0	500	38	0	
2	0	0	0	0	511	510	0	500	38	0	
3	0	0	0	0	505	510	0	501	38	0	
4	0	0	0	0	511	511	1	496	38	0	
5	0	0	0	0	509	511	0	485	38	0	
6	0	0	0	0	510	511	0	468	38	0	
7	0	0	0	0	511	510	0	458	38	0	
8	0	0	0	0	508	510	0	455	38	0	
9	0	0	0	0	510	510	0	449	38	0	
10	0	0	0	0	506	511	0	451	38	0	
11	0	0	0	0	512	511	0	449	38	0	
12	0	0	0	0	509	511	0	450	38	0	
13	0	0	0	0	506	511	0	452	38	0	
14	0	0	0	0	509	513	0	459	38	0	
15	0	0	0	0	514	512	0	467	38	0	
0	0	0	0	0	516	512	1	473	38	0	
1	0	0	0	0	506	510	0	473	38	0	
2	0	0	0	0	510	511	0	473	38	0	
3	0	0	0	0	510	513	0	473	38	0	
4	0	0	0	0	511	512	1	494	38	0	
5	0	0	0	0	513	509	0	492	38	0	
6	0	0	0	0	509	511	0	502	38	0	
7	0	0	0	0	507	511	0	510	38	0	
8	0	0	0	0	513	510	0	509	38	0	
9	0	0	0	0	509	510	0	505	38	0	
10	0	0	0	0	511	512	0	502	38	0	
11	0	0	0	0	516	514	0	502	38	0	
12	0	0	0	0	508	515	1	496	38	0	
13	0	0	0	0	515	514	0	495	38	0	
14	0	0	0	0	514	513	0	497	38	0	
15	0	0	0	0	505	514	0	504	38	0	
0	0	0	0	0	507	513	1	524	38	0	
1	0	0	0	0	507	510	0	521	38	0	
2	0	0	0	0	509	511	0	531	38	0	
3	0	0	0	0	512	512	0	537	38	0	
4	0	0	0	0	509	510	1	547	38	0	
5	0	0	0	0	515	509	0	561	38	0	
6	0	0	0	0	506	509	0	573	38	0	
7	0	0	0	0	509	511	0	583	38	0	
8	0	0	0	0	511	509	0	585	38	0	
9	0	0	0	0	503	508	0	582	38	0	
10	0	0	0	0	513	509	0	575	38	0	
11	0	0	0	0	510	510	0	573	38	0	
12	0	0	0	0	508	509	1	568	38	0	
13	0	0	0	0	508	509	0	558	38	0	
14	0	0	0	0	515	511	0	550	38	0	
15	0	0	0	0	511	512	0	542	38	0	
0	0	0	0	0	511	511	0	540	38	0	
1	0	0	0	0	512	512	0	536	38	0	
2	0	0	0	0	508	512	0	531	38	0	
3	0	0	0	0	513	512	0	524	38	0	
4	0	0	0	0	508	512	1	513	38	0	
5	0	0	0	0	508	510	0	502	38	0	
6	0	0	0	0	510	508	0	490	38	0	
7	0	0	0	0	505	508	0	480	38	0	
8	0	0	0	0	511	508	0	472	38	0	
9	0	0	0	0	513	509	0	467	38	0	
10	0	0	0	0	511	510	0	464	38	0	
11	0	0	0	0	510	513	0	463	38	0	
12	0	0	0	0	505	512	0	463	38	0	
13	0	0	0	0	515	511	0	464	38	0	
14	0	0	0	0	515	511	0	460	38	0	
15	0	0	0	0	514	512	0	452	38	0	
0	0	0	0	0	511	511	0	443	38	0	
1	0	0	0	0	504	511	0	431	38	0	
2	0	0	0	0	506	511	0	422	38	0	
3	0	0	0	0	509	512	0	403	38	0	
4	0	0	0	0	514	511	0	399	38	0	
5	0	0	0	0	508	511	0	401	38	0	
6	0	0	0	0	514	511	0	406	38	0	
7	0	0	0	0	512	512	0	420	38	0	
8	0	0	0	0	507	511	1	436	38	0	
9	0	0	0	0	504	510	0	452	38	0	
10	0	0	0	0	508	510	0	461	38	0	
11	0	0	0	0	511	512	0	473	38	0	
12	0	0	0	0	511	511	1	493	38	0	
13	0	0	0	0	515	511	0	505	38	0	
14	0	0	0	0	510	511	0	520	38	0	
15	0	0	0	0	509	511	0	534	38	0	
0	0	0	0	0	511	512	1	558	38	0	
1	0	0	0	0	512	510	0	547	38	0	
2	0	0	0	0	511	510	0	542	38	0	
3	0	0	0	0	508	512	0	538	38	0	
4	0	0	0	0	514	512	1	538	38	0	
5	0	0	0	0	511	511	0	529	38	0	
6	0	0	0	0	512	510	0	523	38	0	
7	0	0	0	0	508	511	0	515	38	0	
8	0	0	0	0	511	512	1	515	38	0	
9	0	0	0	0	512	511	0	519	38	0	
10	0	0	0	0	513	513	0	526	38	0	
11	0	0	0	0	507	514	0	537	38	0	
12	0	0	0	0	511	513	1	542	38	0	
13	0	0	0	0	514	512	0	534	38	0	
14	0	0	0	0	505	513	0	526	38	0	
15	0	0	0	0	512	514	0	519	38	0	
0	0	0	0	0	508	512	1	511	38	0	
1	0	0	0	0	505	513	0	503	38	0	
2	0	0	0	0	508	513	0	497	38	0	
3	0	0	0	0	505	512	0	486	38	0	
4	0	0	0	0	500	515	1	474	38	0	
5	0	0	0	0	511	513	0	463	38	0	
6	0	0	0	0	514	513	0	459	38	0	
7	0	0	0	0	514	511	0	461	38	0	
8	0	0	0	0	511	509	0	465	38	0	
9	0	0	0	0	509	509	0	473	38	0	
10	0	0	0	0	505	509	0	487	38	0	
11	0	0	0	0	515	511	0	495	38	0	
12	0	0	0	0	513	512	0	498	38	0	
13	0	0	0	0	508	510	0	516	38	0	
14	0	0	0	0	514	511	0	500	38	0	
15	0	0	0	0	518	508	0	484	38	0	
0	0	0	0	0	515	508	1	462	38	0	
1	0	0	0	0	504	507	0	445	38	0	
2	0	0	0	0	499	510	0	432	38	0	
3	0	0	0	0	507	510	0	422	38	0	
4	0	0	0	0	507	508	0	430	38	0	
5	0	0	0	0	518	511	0	446	38	0	
6	0	0	0	0	513	510	0	473	38	0	
7	0	0	0	0	512	508	0	505	38	0	
8	0	0	0	0	507	510	1	545	38	0	
9	0	0	0	0	505	512	0	588	38	0	
10	0	0	0	0	508	513	0	635	38	0	
11	0	0	0	0	515	512	0	686	38	0	
12	0	0	0	0	512	512	1	728	38	0	
13	0	0	0	0	513	512	0	766	38	0	
14	0	0	0	0	501	513	0	805	38	0	
15	0	0	0	0	505	511	0	845	38	0	
0	0	0	0	0	508	513	1	877	38	0	
1	0	0	0	0	513	512	0	902	38	0	
2	0	0	0	0	517	514	0	927	38	0	
3	0	0	0	0	511	515	0	957	38	0	
4	0	0	0	0	508	514	1	990	38	0	
5	0	0	0	0	510	513	0	1018	38	0	
6	0	0	0	0	511	513	0	1018	38	0	
7	0	0	0	0	510	515	0	1018	38	0	
8	0	0	0	0	509	513	1	1019	38	0	
9	0	0	0	0	514	512	0	1018	38	0	
10	0	0	0	0	511	513	0	1018	38	0	
11	0	0	0	0	517	514	0	1018	38	0	
12	0	0	0	0	510	513	1	1019	38	0	
13	0	0	0	0	512	511	0	1018	38	0	
14	0	0	0	0	506	513	0	1018	38	0	
15	0	0	0	0	517	514	0	1018	38	0	
0	0	0	0	0	513	513	1	1019	38	0	
1	0	0	0	0	505	512	0	1018	38	0	
2	0	0	0	0	511	512	0	1018	38	0	
3	0	0	0	0	513	511	0	1018	38	0	
4	0	0	0	0	508	511	1	1018	38	0	
5	0	0	0	0	512	510	0	1018	38	0	
6	0	0	0	0	512	509	0	1018	38	0	
7	0	0	0	0	510	510	0	1018	38	0	
8	0	0	0	0	508	511	1	1019	38	0	
9	0	0	0	0	507	510	0	1019	38	0	
10	0	0	0	0	510	511	0	1018	38	0	
11	0	0	0	0	505	512	0	1018	38	0	
12	0	0	0	0	510	511	1	1018	38	0	
13	0	0	0	0	511	512	0	1018	38	0	
14	0	0	0	0	511	511	0	1018	38	0	
15	0	0	0	0	515	511	0	1018	38	0	
0	0	0	0	0	510	509	1	1019	38	0	
1	0	0	0	0	512	509	0	1018	38	0	
2	0	0	0	0	511	511	0	1018	38	0	
3	0	0	0	0	515	512	0	1018	38	0	
4	0	0	0	0	506	511	1	1019	38	0	
5	0	0	0	0	509	510	0	1018	38	0	
6	0	0	0	0	510	510	0	1018	38	0	
7	0	0	0	0	505	513	0	1018	38	0	
8	0	0	0	0	513	513	1	1019	38	0	
9	0	0	0	0	509	511	0	1018	38	0	
10	0	0	0	0	510	512	0	1018	38	0	
11	0	0	0	0	511	512	0	1018	38	0	
12	0	0	0	0	503	515	1	1019	38	0	
13	0	0	0	0	509	514	0	1019	38	0	
14	0	0	0	0	515	514	0	1018	38	0	
15	0	0	0	0	512	512	0	1018	38	0	
0	0	0	0	0	510	511	1	1019	38	0	
1	0	0	0	0	503	510	0	1018	38	0	
2	0	0	0	0	511	511	0	1019	38	0	
3	0	0	0	0	512	513	0	1018	38	0	
4	0	0	0	0	512	512	1	1019	38	0	
5	0	0	0	0	507	512	0	1018	38	0	
6	0	0	0	0	517	514	0	1018	38	0	
7	0	0	0	0	506	515	0	1018	38	0	
8	0	0	0	0	509	512	1	1019	38	0	
9	0	0	0	0	508	512	0	1018	38	0	
10	0	0	0	0	508	512	0	1018	38	0	
11	0	0	0	0	516	514	0	1018	38	0	
12	0	0	0	0	504	514	1	1019	38	0	
13	0	0	0	0	512	512	0	1019	38	0	
14	0	0	0	0	515	514	0	1018	38	0	
15	0	0	0	0	508	513	0	1018	38	0	
0	0	0	0	0	504	515	1	1019	38	0	
1	0	0	0	0	511	514	0	1018	38	0	
2	0	0	0	0	515	513	0	1018	38	0	
3	0	0	0	0	513	516	0	1018	38	0	
4	0	0	0	0	512	516	1	1018	38	0	
5	0	0	0	0	510	515	0	1018	38	0	
6	0	0	0	0	514	516	0	1018	38	0	
7	0	0	0	0	511	515	0	1018	38	0	
8	0	0	0	0	513	514	1	1019	38	0	
9	0	0	0	0	506	513	0	1018	38	0	
10	0	0	0	0	509	515	0	1018	38	0	
11	0	0	0	0	511	514	0	1018	38	0	
12	0	0	0	0	510	514	1	1019	38	0	
13	0	0	0	0	518	512	0	1018	38	0	
14	0	0	0	0	509	512	0	1018	38	0	
15	0	0	0	0	506	512	0	1018	38	0	
0	0	0	0	0	507	512	1	1019	38	0	
1	0	0	0	0	509	513	0	1018	38	0	
2	0	0	0	0	506	512	0	1018	38	0	
3	0	0	0	0	506	513	0	1018	38	0	
4	0	0	0	0	509	512	1	1019	38	0	
5	0	0	0	0	508	511	0	1018	38	0	
6	0	0	0	0	509	512	0	1018	38	0	
7	0	0	0	0	513	513	0	1018	38	0	
8	0	0	0	0	512	512	1	1019	38	0	
9	0	0	0	0	509	512	0	1018	38	0	
10	0	0	0	0	512	514	0	1018	38	0	
11	0	0	0	0	508	512	0	1018	38	0	
12	0	0	0	0	510	513	1	1019	38	0	
13	0	0	0	0	511	512	0	1018	38	0	
14	0	0	0	0	513	512	0	1018	38	0	
15	0	0	0	0	511	511	0	1018	38	0	
0	0	0	0	0	509	510	1	1017	38	0	
1	0	0	0	0	503	511	0	1018	38	0	
2	0	0	0	0	512	514	0	1018	38	0	
3	0	0	0	0	508	515	0	1018	38	0	
4	0	0	0	0	509	516	1	1019	38	0	
5	0	0	0	0	501	513	0	1018	38	0	
6	0	0	0	0	505	512	0	1018	38	0	
7	0	0	0	0	508	514	0	1018	38	0	
8	0	0	0	0	514	513	1	1019	38	0	
9	0	0	0	0	508	512	0	1018	38	0	
10	0	0	0	0	513	513	0	1018	38	0	
11	0	0	0	0	512	513	0	1018	38	0	
12	0	0	0	0	514	513	1	1019	38	0	
13	0	0	0	0	509	513	0	1018	38	0	
14	0	0	0	0	513	511	0	998	38	0	
15	0	0	0	0	510	513	0	996	38	0	
0	0	0	0	0	512	513	1	993	38	0	
1	0	0	0	0	515	512	0	991	38	0	
2	0	0	0	0	517	514	0	991	38	0	
3	0	0	0	0	508	514	0	993	38	0	
4	0	0	0	0	504	515	1	994	38	0	
5	0	0	0	0	504	513	0	989	38	0	
6	0	0	0	0	513	511	0	983	38	0	
7	0	0	0	0	505	513	0	977	38	0	
8	0	0	0	0	512	513	1	969	38	0	
9	0	0	0	0	511	515	0	955	38	0	
10	0	0	0	0	509	513	0	938	38	0	
11	0	0	0	0	512	512	0	920	38	0	
12	0	0	0	0	510	514	1	895	38	0	
13	0	0	0	0	512	512	0	878	38	0	
14	0	0	0	0	512	512	0	872	38	0	
15	0	0	0	0	509	513	0	878	38	0	
0	0	0	0	0	513	516	1	884	38	0	
1	0	0	0	0	511	515	0	886	38	0	
2	0	0	0	0	508	515	0	883	38	0	
3	0	0	0	0	511	515	0	882	38	0	
4	0	0	0	0	508	515	1	873	38	0	
5	0	0	0	0	509	514	0	867	38	0	
6	0	0	0	0	510	515	0	857	38	0	
7	0	0	0	0	511	515	0	850	38	0	
8	0	0	0	0	508	513	1	826	38	0	
9	0	0	0	0	508	509	0	813	38	0	
10	0	0	0	0	513	511	0	803	38	0	
11	0	0	0	0	518	511	0	794	38	0	
12	0	0	0	0	517	511	0	789	38	0	
13	0	0	0	0	507	511	0	792	38	0	
14	0	0	0	0	511	513	0	796	38	0	
15	0	0	0	0	512	512	0	810	38	0	
0	0	0	0	0	517	512	1	820	38	0	
1	0	0	0	0	513	513	0	833	38	0	
2	0	0	0	0	505	512	0	835	39	0	
3	0	0	0	0	508	514	0	831	38	0	
4	0	0	0	0	511	516	1	824	38	0	
5	0	0	0	0	508	516	0	823	38	0	
6	0	0	0	0	510	515	0	815	38	0	
7	0	0	0	0	512	514	0	808	37	0	
8	0	0	0	0	511	516	1	799	37	0	
9	0	0	0	0	509	515	0	793	37	0	
10	0	0	0	0	505	515	0	779	37	0	
11	0	0	0	0	513	514	0	753	38	0	
12	0	0	0	0	513	512	1	726	38	0	
13	0	0	0	0	510	515	0	698	38	0	
14	0	0	0	0	508	516	0	668	38	0	
15	0	0	0	0	508	514	0	641	38	0	
0	0	0	0	0	511	513	0	620	38	0	
1	0	0	0	0	509	513	0	608	38	0	
2	0	0	0	0	515	514	0	603	38	0	
3	0	0	0	0	505	513	0	598	38	0	
4	0	0	0	0	515	514	1	595	38	0	
5	0	0	0	0	509	514	0	592	39	0	
6	0	0	0	0	507	514	0	595	39	0	
7	0	0	0	0	512	516	0	591	39	0	
8	0	0	0	0	508	515	1	575	39	0	
9	0	0	0	0	507	513	0	560	38	0	
10	0	0	0	0	515	513	0	548	38	0	
11	0	0	0	0	508	513	0	540	38	0	
12	0	0	0	0	512	514	1	534	38	0	
13	0	0	0	0	520	513	0	538	38	0	
14	0	0	0	0	509	513	0	542	38	0	
15	0	0	0	0	511	513	0	546	39	0	
0	0	0	0	0	509	513	1	545	38	0	
1	0	0	0	0	503	514	0	542	38	0	
2	0	0	0	0	508	515	0	531	38	0	
3	0	0	0	0	510	513	0	516	38	0	
4	0	0	0	0	515	513	1	505	38	0	
5	0	0	0	0	501	512	0	500	38	0	
6	0	0	0	0	512	513	0	500	39	0	
7	0	0	0	0	507	514	0	502	39	0	
8	0	0	0	0	512	514	1	507	39	0	
9	0	0	0	0	511	514	0	504	40	0	
10	0	0	0	0	503	515	0	504	41	0	
11	0	0	0	0	512	515	0	500	40	0	
12	0	0	0	0	513	515	1	496	41	0	
13	0	0	0	0	510	515	0	498	41	0	
14	0	0	0	0	506	514	0	504	40	0	
15	0	0	0	0	504	514	0	489	39	0	
0	0	0	0	0	513	515	1	494	38	0	
1	0	0	0	0	513	512	0	504	37	0	
2	0	0	0	0	514	513	0	507	37	0	
3	0	0	0	0	513	513	0	505	37	0	
4	0	0	0	0	510	516	1	497	37	0	
5	0	0	0	0	511	513	0	477	37	0	
6	0	0	0	0	513	512	0	447	37	0	
7	0	0	0	0	506	510	0	415	37	0	
8	0	0	0	0	511	510	0	376	37	0	
9	0	0	0	0	507	509	0	347	37	0	
10	0	0	0	0	506	509	0	334	36	0	
11	0	0	0	0	507	509	0	329	37	0	
12	0	0	0	0	514	511	1	330	37	0	
13	0	0	0	0	515	510	0	339	37	0	
14	0	0	0	0	517	509	0	354	38	0	
15	0	0	0	0	504	510	0	386	38	0	
0	0	0	0	0	509	510	0	421	39	0	
1	0	0	0	0	509	508	0	455	38	0	
2	0	0	0	0	513	509	0	494	38	0	
3	0	0	0	0	508	510	0	533	38	0	
4	0	0	0	0	510	508	1	551	38	0	
5	0	0	0	0	510	507	0	562	38	0	
6	0	0	0	0	516	509	0	562	38	0	
7	0	0	0	0	513	509	0	552	38	0	
8	0	0	0	0	507	511	1	537	38	0	
9	0	0	0	0	512	510	0	524	38	0	
10	0	0	0	0	506	510	0	503	38	0	
11	0	0	0	0	505	511	0	468	38	0	
12	0	0	0	0	512	510	0	420	38	0	
13	0	0	0	0	512	510	0	372	38	0	
14	0	0	0	0	511	511	0	331	39	0	
15	0	0	0	0	515	512	0	296	39	0	
0	0	0	0	0	513	513	1	267	39	0	
1	0	0	0	0	504	512	0	252	39	0	
2	0	0	0	0	513	513	0	248	39	0	
3	0	0	0	0	512	514	0	252	38	0	
4	0	0	0	0	509	514	1	249	38	0	
5	0	0	0	0	511	512	0	248	38	0	
6	0	0	0	0	516	511	0	243	38	0	
7	0	0	0	0	509	513	0	231	38	0	
8	0	0	0	0	505	513	0	198	38	0	
9	0	0	0	0	504	512	0	158	38	0	
10	0	0	0	0	512	512	0	114	38	0	
11	0	0	0	0	504	511	0	83	37	0	
12	0	0	0	0	507	511	0	75	37	0	
13	0	0	0	0	512	511	0	76	37	0	
14	0	0	0	0	513	510	0	81	37	0	
15	0	0	0	0	515	512	0	83	37	0	
0	0	0	0	0	515	511	1	88	36	0	
1	0	0	0	0	511	510	0	92	36	0	
2	0	0	0	0	509	513	0	93	36	0	
3	0	0	0	0	512	511	0	88	35	0	
4	0	0	0	0	506	512	0	81	36	0	
5	0	0	0	0	512	512	0	71	36	0	
6	0	0	0	0	510	512	0	40	37	0	
7	0	0	0	0	511	512	0	3	37	0	
8	0	0	0	0	512	511	0	0	38	0	
9	0	0	0	0	506	512	0	0	39	0	
10	0	0	0	0	506	513	0	0	41	0	
11	0	0	0	0	507	512	0	0	42	0	
12	0	0	0	0	515	515	1	0	42	0	
13	0	0	0	0	504	513	0	0	43	0	
14	0	0	0	0	514	512	0	0	42	0	
15	0	0	0	0	502	512	0	0	42	0	
0	0	0	0	0	512	512	1	0	42	0	
1	0	0	0	0	516	512	0	0	42	0	
2	0	0	0	0	511	512	0	0	41	0	
3	0	0	0	0	511	513	0	0	40	0	
4	0	0	0	0	514	511	0	0	40	0	
5	0	0	0	0	504	514	0	0	39	0	
6	0	0	0	0	512	515	0	0	39	0	
7	0	0	0	0	511	515	0	0	38	0	
8	0	0	0	0	511	515	0	0	38	0	
9	0	0	0	0	508	513	0	0	37	0	
10	0	0	0	0	510	513	0	0	37	0	
11	0	0	0	0	512	513	0	0	37	0	
12	0	0	0	0	510	512	1	0	37	0	
13	0	0	0	0	512	511	0	0	37	0	
14	0	0	0	0	515	511	0	0	38	0	
15	0	0	0	0	508	512	0	0	38	0	
0	0	0	0	0	506	512	1	0	40	0	
1	0	0	0	0	509	512	0	0	42	0	
2	0	0	0	0	506	514	0	0	39	0	
3	0	0	0	0	511	513	0	0	39	0	
4	0	0	0	0	511	513	0	0	39	0	
5	0	0	0	0	512	513	0	0	41	0	
6	0	0	0	0	511	514	0	0	42	0	
7	0	0	0	0	503	515	0	0	41	0	
8	0	0	0	0	511	512	0	0	37	0	
9	0	0	0	0	511	513	0	0	35	0	
10	0	0	0	0	518	515	0	0	35	0	
11	0	0	0	0	510	513	0	0	35	0	
12	0	0	0	0	504	513	1	0	36	0	
13	0	0	0	0	509	511	0	0	38	0	
14	0	0	0	0	507	511	0	0	38	0	
15	0	0	0	0	513	512	0	0	38	0	
0	0	0	0	0	520	514	1	0	39	0	
1	0	0	0	0	508	513	0	0	38	0	
2	0	0	0	0	511	514	0	0	38	0	
3	0	0	0	0	509	514	0	0	38	0	
4	0	0	0	0	515	513	0	0	38	0	
5	0	0	0	0	506	512	0	0	38	0	
6	0	0	0	0	504	513	0	0	38	0	
7	0	0	0	0	509	513	0	0	38	0	
8	0	0	0	0	514	512	0	0	38	0	
9	0	0	0	0	509	511	0	0	39	0	
10	0	0	0	0	506	509	0	0	38	0	
11	0	0	0	0	503	511	0	0	37	0	
12	0	0	0	0	511	512	0	0	38	0	
13	0	0	0	0	517	513	0	0	38	0	
14	0	0	0	0	506	512	0	0	39	0	
