# OpenSignals Text File Format. Version 1
# {"84:BA:20:AE:BF:DA": {"position": 0, "device": "bitalino_rev", "device name": "84:BA:20:AE:BF:DA", "device connection": "BTH84:BA:20:AE:BF:DA", "sampling rate": 1000, "resolution": [4, 1, 1, 1, 1, 10, 10, 10, 10, 6, 6], "firmware version": 1282, "comments": "", "keywords": "", "mode": 0, "sync interval": 2, "date": "2025-10-4", "time": "12:25:52.503", "channels": [1, 2, 3, 4, 5, 6], "sensor": ["RAW", "RAW", "RAW", "RAW", "RAW", "RAW"], "label": ["A1", "A2", "A3", "A4", "A5", "A6"], "column": ["nSeq", "I1", "I2", "O1", "O2", "A1", "A2", "A3", "A4", "A5", "A6"], "special": [{}, {}, {}, {}, {}, {}], "digital IO": [0, 0, 1, 1], "convertedValues": 0}}
# EndOfHeader
0	0	0	0	0	510	510	0	1018	39	21	
1	0	0	0	0	505	508	0	1018	39	21	
2	0	0	0	0	510	508	0	1018	39	21	
3	0	0	0	0	514	510	0	1018	39	21	
4	0	0	0	0	512	509	1	1019	39	21	
5	0	0	0	0	508	508	0	987	39	21	
6	0	0	0	0	509	509	0	987	38	21	
7	0	0	0	0	510	511	0	977	39	21	
8	0	0	0	0	519	511	0	965	39	21	
9	0	0	0	0	509	512	0	963	39	21	
10	0	0	0	0	511	512	0	966	39	21	
11	0	0	0	0	508	513	0	979	39	21	
12	0	0	0	0	505	513	1	994	39	21	
13	0	0	0	0	508	512	0	996	39	21	
14	0	0	0	0	511	515	0	982	38	21	
15	0	0	0	0	507	515	0	973	38	21	
0	0	0	0	0	503	516	1	960	38	21	
1	0	0	0	0	511	515	0	963	39	21	
2	0	0	0	0	511	514	0	945	39	21	
3	0	0	0	0	511	515	0	929	39	21	
4	0	0	0	0	512	513	0	906	39	21	
5	0	0	0	0	512	512	0	889	39	21	
6	0	0	0	0	519	511	0	887	38	21	
7	0	0	0	0	516	512	0	894	39	21	
8	0	0	0	0	514	512	1	896	38	21	
9	0	0	0	0	511	510	0	894	39	21	
10	0	0	0	0	513	510	0	889	39	21	
11	0	0	0	0	515	510	0	899	39	21	
12	0	0	0	0	503	511	1	902	39	21	
13	0	0	0	0	506	511	0	919	39	21	
14	0	0	0	0	504	511	0	924	38	21	
15	0	0	0	0	519	511	0	923	38	21	
0	0	0	0	0	511	511	0	920	39	21	
1	0	0	0	0	513	512	0	920	39	21	
2	0	0	0	0	508	511	0	912	39	21	
3	0	0	0	0	505	511	0	906	39	21	
4	0	0	0	0	508	513	0	900	39	21	
5	0	0	0	0	514	511	0	887	39	21	
6	0	0	0	0	513	511	0	880	38	21	
7	0	0	0	0	516	513	0	856	38	21	
8	0	0	0	0	505	512	0	847	39	21	
9	0	0	0	0	511	508	0	827	39	21	
10	0	0	0	0	505	509	0	806	39	21	
11	0	0	0	0	513	513	0	794	39	21	
12	0	0	0	0	510	515	1	780	39	21	
13	0	0	0	0	504	513	0	788	39	21	
14	0	0	0	0	513	511	0	795	38	21	
15	0	0	0	0	506	511	0	804	39	21	
0	0	0	0	0	508	511	1	814	38	21	
1	0	0	0	0	512	512	0	832	39	21	
2	0	0	0	0	506	512	0	837	39	21	
3	0	0	0	0	510	511	0	840	38	21	
4	0	0	0	0	506	513	1	835	39	21	
5	0	0	0	0	510	513	0	830	39	21	
6	0	0	0	0	510	514	0	811	38	21	
7	0	0	0	0	513	513	0	790	38	21	
8	0	0	0	0	508	511	0	771	39	21	
9	0	0	0	0	513	511	0	756	39	21	
10	0	0	0	0	519	511	0	750	39	21	
11	0	0	0	0	517	512	0	747	39	21	
12	0	0	0	0	515	512	1	753	39	21	
13	0	0	0	0	499	510	0	760	39	21	
14	0	0	0	0	511	511	0	771	38	21	
15	0	0	0	0	507	511	0	782	39	21	
0	0	0	0	0	505	512	1	781	38	21	
1	0	0	0	0	513	513	0	778	39	21	
2	0	0	0	0	510	513	0	766	39	21	
3	0	0	0	0	512	513	0	759	39	21	
4	0	0	0	0	506	515	0	760	39	21	
5	0	0	0	0	510	513	0	759	38	21	
6	0	0	0	0	515	512	0	761	38	21	
7	0	0	0	0	515	512	0	766	39	21	
8	0	0	0	0	519	512	1	767	38	21	
9	0	0	0	0	514	513	0	776	39	21	
10	0	0	0	0	513	512	0	779	39	21	
11	0	0	0	0	510	511	0	770	39	21	
12	0	0	0	0	505	513	0	774	39	21	
13	0	0	0	0	515	513	0	783	39	21	
14	0	0	0	0	505	512	0	787	38	21	
15	0	0	0	0	507	512	0	787	39	21	
0	0	0	0	0	505	511	0	783	39	21	
1	0	0	0	0	503	511	0	772	39	21	
2	0	0	0	0	504	512	0	760	39	21	
3	0	0	0	0	510	512	0	743	38	21	
4	0	0	0	0	508	511	1	729	39	21	
5	0	0	0	0	516	510	0	703	38	21	
6	0	0	0	0	510	509	0	676	38	21	
7	0	0	0	0	517	510	0	667	39	21	
8	0	0	0	0	513	510	0	651	39	21	
9	0	0	0	0	504	508	0	638	39	21	
10	0	0	0	0	506	510	0	630	39	21	
11	0	0	0	0	512	511	0	622	38	21	
12	0	0	0	0	513	511	0	621	39	21	
13	0	0	0	0	518	511	0	630	38	21	
14	0	0	0	0	516	512	0	643	38	21	
15	0	0	0	0	506	512	0	654	38	21	
0	0	0	0	0	509	512	0	647	38	21	
1	0	0	0	0	506	513	0	636	39	21	
2	0	0	0	0	508	514	0	632	39	21	
3	0	0	0	0	503	514	0	637	39	21	
4	0	0	0	0	512	513	0	640	39	21	
5	0	0	0	0	512	512	0	649	38	21	
6	0	0	0	0	510	512	0	669	38	21	
7	0	0	0	0	502	513	0	697	38	21	
8	0	0	0	0	507	510	0	725	39	21	
9	0	0	0	0	513	511	0	725	39	21	
10	0	0	0	0	507	511	0	705	39	21	
11	0	0	0	0	509	509	0	683	39	21	
12	0	0	0	0	515	510	0	661	39	21	
13	0	0	0	0	510	512	0	664	39	21	
14	0	0	0	0	510	511	0	669	38	21	
15	0	0	0	0	514	512	0	677	39	21	
0	0	0	0	0	511	512	0	678	39	21	
1	0	0	0	0	499	511	0	685	39	21	
2	0	0	0	0	513	511	0	678	39	21	
3	0	0	0	0	511	511	0	694	39	21	
4	0	0	0	0	502	510	0	712	39	21	
5	0	0	0	0	508	510	0	717	39	21	
6	0	0	0	0	511	510	0	696	38	21	
7	0	0	0	0	508	511	0	668	38	21	
8	0	0	0	0	519	510	0	650	38	21	
9	0	0	0	0	510	511	0	638	39	21	
10	0	0	0	0	501	511	0	636	39	21	
11	0	0	0	0	514	512	0	638	38	21	
12	0	0	0	0	510	511	0	637	39	21	
13	0	0	0	0	513	508	0	636	39	21	
14	0	0	0	0	516	508	0	646	38	21	
15	0	0	0	0	513	510	0	663	39	21	
0	0	0	0	0	509	512	0	674	39	21	
1	0	0	0	0	503	514	0	675	39	21	
2	0	0	0	0	503	511	0	689	39	21	
3	0	0	0	0	506	511	0	723	39	21	
4	0	0	0	0	504	512	0	755	39	21	
5	0	0	0	0	511	511	0	765	39	21	
6	0	0	0	0	514	512	0	780	38	21	
7	0	0	0	0	510	511	0	790	39	21	
8	0	0	0	0	519	513	1	787	38	21	
9	0	0	0	0	510	512	0	771	39	21	
10	0	0	0	0	510	512	0	760	39	21	
11	0	0	0	0	517	513	0	751	39	21	
12	0	0	0	0	508	512	0	735	39	21	
13	0	0	0	0	507	512	0	728	39	21	
14	0	0	0	0	512	511	0	719	38	21	
15	0	0	0	0	508	512	0	710	39	21	
0	0	0	0	0	507	513	1	702	38	21	
1	0	0	0	0	509	512	0	689	39	21	
2	0	0	0	0	511	512	0	666	39	21	
3	0	0	0	0	507	514	0	643	39	21	
4	0	0	0	0	510	513	1	617	39	21	
5	0	0	0	0	503	512	0	610	39	21	
6	0	0	0	0	515	511	0	609	38	21	
7	0	0	0	0	512	513	0	618	39	21	
8	0	0	0	0	510	510	0	617	39	21	
9	0	0	0	0	509	510	0	617	39	21	
10	0	0	0	0	509	511	0	608	39	21	
11	0	0	0	0	519	512	0	606	39	21	
12	0	0	0	0	505	514	1	604	39	21	
13	0	0	0	0	506	512	0	599	39	21	
14	0	0	0	0	510	513	0	594	38	21	
15	0	0	0	0	511	512	0	599	39	21	
0	0	0	0	0	510	511	0	602	39	21	
1	0	0	0	0	504	511	0	593	39	21	
2	0	0	0	0	510	511	0	588	39	21	
3	0	0	0	0	511	511	0	595	39	21	
4	0	0	0	0	511	512	0	601	39	21	
5	0	0	0	0	507	515	0	600	38	21	
6	0	0	0	0	505	515	0	610	38	21	
7	0	0	0	0	508	515	0	615	39	21	
8	0	0	0	0	509	515	1	611	38	21	
9	0	0	0	0	510	510	0	579	39	21	
10	0	0	0	0	512	511	0	559	39	21	
11	0	0	0	0	512	512	0	557	39	21	
12	0	0	0	0	510	512	0	563	39	21	
13	0	0	0	0	505	511	0	582	39	21	
14	0	0	0	0	512	513	0	588	38	21	
15	0	0	0	0	514	515	0	584	39	21	
0	0	0	0	0	515	516	0	579	39	21	
1	0	0	0	0	512	516	0	589	39	21	
2	0	0	0	0	504	516	0	603	39	21	
3	0	0	0	0	513	515	0	617	39	21	
4	0	0	0	0	506	518	1	624	39	21	
5	0	0	0	0	506	515	0	638	39	21	
6	0	0	0	0	508	516	0	654	38	21	
7	0	0	0	0	510	516	0	661	39	21	
8	0	0	0	0	503	516	1	652	38	21	
9	0	0	0	0	513	512	0	647	39	21	
10	0	0	0	0	509	513	0	643	39	21	
11	0	0	0	0	511	513	0	657	39	21	
12	0	0	0	0	518	511	0	653	39	21	
13	0	0	0	0	511	511	0	641	39	21	
14	0	0	0	0	514	511	0	615	38	21	
15	0	0	0	0	514	512	0	586	38	21	
0	0	0	0	0	515	511	0	562	38	21	
1	0	0	0	0	513	510	0	545	39	21	
2	0	0	0	0	514	511	0	525	39	21	
3	0	0	0	0	502	512	0	523	39	21	
4	0	0	0	0	504	514	1	527	39	21	
5	0	0	0	0	508	512	0	553	39	21	
6	0	0	0	0	510	512	0	560	38	21	
7	0	0	0	0	514	513	0	563	39	21	
8	0	0	0	0	506	512	0	558	39	21	
9	0	0	0	0	504	513	0	553	39	21	
10	0	0	0	0	504	511	0	562	39	21	
11	0	0	0	0	512	513	0	574	39	21	
12	0	0	0	0	513	514	0	567	39	21	
13	0	0	0	0	511	514	0	552	39	21	
14	0	0	0	0	509	515	0	537	38	21	
15	0	0	0	0	506	516	0	521	39	21	
0	0	0	0	0	512	516	1	513	38	21	
1	0	0	0	0	0	171	0	1017	39	21	
2	0	0	0	0	259	173	0	1018	39	21	
3	0	0	0	0	269	182	0	1017	39	21	
4	0	0	0	0	254	188	0	1019	39	21	
5	0	0	0	0	251	195	0	1017	39	21	
6	0	0	0	0	234	200	0	1017	38	21	
7	0	0	0	0	226	203	0	385	39	21	
8	0	0	0	0	220	202	0	0	39	21	
9	0	0	0	0	212	203	0	0	39	21	
10	0	0	0	0	215	205	0	0	39	21	
11	0	0	0	0	924	540	0	0	39	21	
12	0	0	0	0	505	556	0	0	39	21	
13	0	0	0	0	439	545	0	0	39	21	
14	0	0	0	0	454	537	0	0	38	21	
15	0	0	0	0	471	533	0	0	39	21	
0	0	0	0	0	485	527	0	0	39	21	
1	0	0	0	0	485	524	0	0	39	21	
2	0	0	0	0	487	521	0	0	39	21	
3	0	0	0	0	494	519	0	0	39	21	
4	0	0	0	0	494	520	1	0	39	21	
5	0	0	0	0	499	518	0	0	39	21	
6	0	0	0	0	513	513	0	0	38	21	
7	0	0	0	0	508	512	0	0	39	21	
8	0	0	0	0	510	513	0	280	38	21	
9	0	0	0	0	501	511	0	506	39	21	
10	0	0	0	0	508	513	0	680	39	21	
11	0	0	0	0	515	512	0	805	39	21	
12	0	0	0	0	516	512	0	898	39	21	
13	0	0	0	0	520	513	0	947	39	21	
14	0	0	0	0	519	512	0	974	38	21	
15	0	0	0	0	510	514	0	1016	38	21	
0	0	0	0	0	504	514	1	1019	38	21	
1	0	0	0	0	508	512	0	1018	39	21	
2	0	0	0	0	515	512	0	1018	39	21	
3	0	0	0	0	516	510	0	1018	39	21	
4	0	0	0	0	512	510	1	1019	39	21	
5	0	0	0	0	510	509	0	1018	39	21	
6	0	0	0	0	513	509	0	1018	38	21	
7	0	0	0	0	501	510	0	1018	38	21	
8	0	0	0	0	512	508	0	1019	39	21	
9	0	0	0	0	504	508	0	1018	39	21	
10	0	0	0	0	510	509	0	1018	39	21	
11	0	0	0	0	512	509	0	1018	39	21	
12	0	0	0	0	512	508	0	1019	39	21	
13	0	0	0	0	511	507	0	1018	39	21	
14	0	0	0	0	515	508	0	1018	38	21	
15	0	0	0	0	511	511	0	1018	39	21	
0	0	0	0	0	512	512	1	1019	38	21	
1	0	0	0	0	514	509	0	1018	39	21	
2	0	0	0	0	513	508	0	1018	39	21	
3	0	0	0	0	513	510	0	1018	39	21	
4	0	0	0	0	508	508	0	1019	39	21	
5	0	0	0	0	499	508	0	1018	38	21	
6	0	0	0	0	515	509	0	1018	38	21	
7	0	0	0	0	504	510	0	1018	38	21	
8	0	0	0	0	504	510	1	993	38	21	
9	0	0	0	0	514	510	0	979	39	21	
10	0	0	0	0	505	509	0	960	39	21	
11	0	0	0	0	510	510	0	935	39	21	
12	0	0	0	0	508	511	0	916	39	21	
13	0	0	0	0	512	512	0	905	39	21	
14	0	0	0	0	505	511	0	888	38	21	
15	0	0	0	0	515	513	0	883	38	21	
0	0	0	0	0	513	511	0	894	38	21	
1	0	0	0	0	510	510	0	905	39	21	
2	0	0	0	0	513	509	0	916	39	21	
3	0	0	0	0	519	511	0	929	39	21	
4	0	0	0	0	508	511	0	929	39	21	
5	0	0	0	0	510	511	0	913	39	21	
6	0	0	0	0	513	512	0	899	38	21	
7	0	0	0	0	501	512	0	887	39	21	
8	0	0	0	0	510	510	0	873	39	21	
9	0	0	0	0	506	510	0	878	39	21	
10	0	0	0	0	504	511	0	888	39	21	
11	0	0	0	0	505	514	0	898	39	21	
12	0	0	0	0	512	514	1	908	39	21	
13	0	0	0	0	507	512	0	922	39	21	
14	0	0	0	0	519	510	0	933	38	21	
15	0	0	0	0	512	510	0	944	39	21	
0	0	0	0	0	509	508	0	949	39	21	
1	0	0	0	0	505	508	0	937	39	21	
2	0	0	0	0	515	511	0	929	39	21	
3	0	0	0	0	508	511	0	921	39	21	
4	0	0	0	0	510	512	1	915	39	21	
5	0	0	0	0	515	511	0	912	39	21	
6	0	0	0	0	511	512	0	910	38	21	
7	0	0	0	0	502	512	0	911	39	21	
8	0	0	0	0	503	510	0	897	38	21	
9	0	0	0	0	508	511	0	882	39	21	
10	0	0	0	0	515	511	0	877	39	21	
11	0	0	0	0	505	511	0	869	39	21	
12	0	0	0	0	508	513	1	853	39	21	
13	0	0	0	0	512	512	0	841	38	21	
14	0	0	0	0	513	511	0	826	38	21	
15	0	0	0	0	518	511	0	805	38	21	
0	0	0	0	0	508	512	0	788	38	21	
1	0	0	0	0	511	510	0	777	39	21	
2	0	0	0	0	505	510	0	774	39	21	
3	0	0	0	0	509	510	0	772	39	21	
4	0	0	0	0	511	511	1	771	39	21	
5	0	0	0	0	508	511	0	762	39	21	
6	0	0	0	0	518	511	0	756	38	21	
7	0	0	0	0	513	512	0	761	39	21	
8	0	0	0	0	510	513	1	751	38	21	
9	0	0	0	0	511	512	0	738	39	21	
10	0	0	0	0	513	513	0	718	39	21	
11	0	0	0	0	506	512	0	705	39	21	
12	0	0	0	0	508	514	0	694	39	21	
13	0	0	0	0	504	512	0	684	39	21	
14	0	0	0	0	511	512	0	668	38	21	
15	0	0	0	0	512	511	0	651	39	21	
0	0	0	0	0	516	512	0	638	39	21	
1	0	0	0	0	503	511	0	623	39	21	
2	0	0	0	0	518	511	0	608	39	21	
3	0	0	0	0	510	512	0	609	39	21	
4	0	0	0	0	516	512	1	629	39	21	
5	0	0	0	0	509	512	0	664	39	21	
6	0	0	0	0	512	512	0	695	38	21	
7	0	0	0	0	510	512	0	721	38	21	
8	0	0	0	0	510	512	1	733	38	21	
9	0	0	0	0	509	510	0	731	39	21	
10	0	0	0	0	504	512	0	720	39	21	
11	0	0	0	0	508	511	0	712	39	21	
12	0	0	0	0	514	514	0	698	39	21	
13	0	0	0	0	509	512	0	679	39	21	
14	0	0	0	0	505	512	0	673	38	21	
15	0	0	0	0	509	515	0	649	38	21	
0	0	0	0	0	513	517	1	625	38	21	
1	0	0	0	0	513	512	0	611	39	21	
2	0	0	0	0	508	513	0	605	39	21	
3	0	0	0	0	507	511	0	611	39	21	
4	0	0	0	0	519	512	1	630	39	21	
5	0	0	0	0	512	511	0	657	39	21	
6	0	0	0	0	512	513	0	679	38	21	
7	0	0	0	0	506	511	0	680	38	21	
8	0	0	0	0	517	512	0	681	38	21	
9	0	0	0	0	509	512	0	686	39	21	
10	0	0	0	0	501	513	0	704	39	21	
11	0	0	0	0	503	514	0	722	38	21	
12	0	0	0	0	508	512	0	728	39	21	
13	0	0	0	0	508	511	0	718	39	21	
14	0	0	0	0	508	510	0	702	38	21	
15	0	0	0	0	500	511	0	697	39	21	
0	0	0	0	0	514	510	0	689	39	21	
1	0	0	0	0	513	509	0	685	39	21	
2	0	0	0	0	514	509	0	679	39	21	
3	0	0	0	0	511	510	0	672	38	21	
4	0	0	0	0	514	509	0	647	39	21	
5	0	0	0	0	514	508	0	631	39	21	
6	0	0	0	0	514	508	0	630	38	21	
7	0	0	0	0	507	511	0	637	38	21	
8	0	0	0	0	511	511	0	644	38	21	
9	0	0	0	0	507	508	0	652	39	21	
10	0	0	0	0	507	509	0	651	39	21	
11	0	0	0	0	507	512	0	649	38	21	
12	0	0	0	0	504	514	0	647	38	21	
13	0	0	0	0	511	515	0	631	38	21	
14	0	0	0	0	504	514	0	613	38	21	
15	0	0	0	0	510	514	0	593	38	21	
0	0	0	0	0	511	512	1	576	38	21	
1	0	0	0	0	515	512	0	572	39	21	
2	0	0	0	0	517	510	0	577	39	21	
3	0	0	0	0	504	511	0	595	39	21	
4	0	0	0	0	510	511	0	603	39	21	
5	0	0	0	0	512	512	0	601	39	21	
6	0	0	0	0	513	513	0	609	38	21	
7	0	0	0	0	511	515	0	632	39	21	
8	0	0	0	0	508	514	0	643	39	21	
9	0	0	0	0	513	513	0	659	39	21	
10	0	0	0	0	507	513	0	654	39	21	
11	0	0	0	0	511	514	0	651	39	21	
12	0	0	0	0	514	512	0	627	39	21	
13	0	0	0	0	494	513	0	607	39	21	
14	0	0	0	0	508	513	0	596	38	21	
15	0	0	0	0	507	513	0	593	39	21	
0	0	0	0	0	511	513	0	588	38	21	
1	0	0	0	0	504	514	0	580	39	21	
2	0	0	0	0	512	514	0	576	39	21	
3	0	0	0	0	517	513	0	582	39	21	
4	0	0	0	0	514	513	1	582	39	21	
5	0	0	0	0	510	511	0	583	39	21	
6	0	0	0	0	515	512	0	582	38	21	
7	0	0	0	0	507	512	0	596	38	21	
8	0	0	0	0	500	512	0	617	39	21	
9	0	0	0	0	516	514	0	635	39	21	
10	0	0	0	0	513	514	0	633	39	21	
11	0	0	0	0	510	515	0	625	38	21	
12	0	0	0	0	505	515	0	611	39	21	
13	0	0	0	0	506	514	0	609	38	21	
14	0	0	0	0	513	513	0	616	38	21	
15	0	0	0	0	503	514	0	626	38	21	
0	0	0	0	0	509	513	0	610	39	21	
1	0	0	0	0	505	511	0	594	39	21	
2	0	0	0	0	507	511	0	574	39	21	
3	0	0	0	0	515	512	0	563	38	21	
4	0	0	0	0	513	511	0	563	39	21	
5	0	0	0	0	519	509	0	571	38	21	
6	0	0	0	0	512	512	0	586	38	21	
7	0	0	0	0	507	513	0	591	38	21	
8	0	0	0	0	511	513	0	601	39	21	
9	0	0	0	0	515	513	0	615	39	21	
10	0	0	0	0	511	514	0	616	39	21	
11	0	0	0	0	505	513	0	615	38	21	
12	0	0	0	0	507	514	0	621	39	21	
13	0	0	0	0	508	512	0	624	39	21	
14	0	0	0	0	511	513	0	631	38	21	
15	0	0	0	0	504	515	0	638	38	21	
0	0	0	0	0	506	514	1	635	38	21	
1	0	0	0	0	510	515	0	626	39	21	
2	0	0	0	0	506	512	0	609	39	21	
3	0	0	0	0	511	511	0	592	39	21	
4	0	0	0	0	510	511	0	581	39	21	
5	0	0	0	0	515	509	0	582	39	21	
6	0	0	0	0	518	511	0	587	38	21	
7	0	0	0	0	519	512	0	596	39	21	
8	0	0	0	0	512	512	0	604	39	21	
9	0	0	0	0	513	512	0	631	39	21	
10	0	0	0	0	509	512	0	645	39	21	
11	0	0	0	0	504	512	0	645	39	21	
12	0	0	0	0	507	513	1	622	39	21	
13	0	0	0	0	507	512	0	603	38	21	
14	0	0	0	0	508	511	0	588	38	21	
15	0	0	0	0	503	511	0	582	38	21	
0	0	0	0	0	513	511	0	567	39	21	
1	0	0	0	0	511	514	0	548	39	21	
2	0	0	0	0	505	513	0	534	39	21	
3	0	0	0	0	513	512	0	516	39	21	
4	0	0	0	0	507	509	0	497	39	21	
5	0	0	0	0	508	510	0	488	39	21	
6	0	0	0	0	509	510	0	482	38	21	
7	0	0	0	0	514	511	0	479	39	21	
8	0	0	0	0	516	509	0	485	39	21	
9	0	0	0	0	509	510	0	485	39	21	
10	0	0	0	0	503	508	0	490	39	21	
11	0	0	0	0	517	510	0	499	39	21	
12	0	0	0	0	515	510	0	505	39	21	
13	0	0	0	0	505	510	0	511	39	21	
14	0	0	0	0	511	510	0	507	38	21	
15	0	0	0	0	509	511	0	510	39	21	
0	0	0	0	0	507	509	0	522	39	21	
1	0	0	0	0	505	511	0	542	39	21	
2	0	0	0	0	511	511	0	555	39	21	
3	0	0	0	0	515	511	0	559	39	21	
4	0	0	0	0	508	511	0	557	39	21	
5	0	0	0	0	508	512	0	547	39	21	
6	0	0	0	0	515	513	0	540	38	21	
7	0	0	0	0	511	512	0	540	39	21	
8	0	0	0	0	511	512	1	559	38	21	
9	0	0	0	0	512	510	0	592	39	21	
10	0	0	0	0	515	512	0	622	39	21	
11	0	0	0	0	515	513	0	646	39	21	
12	0	0	0	0	512	512	1	652	39	21	
13	0	0	0	0	506	510	0	660	39	21	
14	0	0	0	0	510	510	0	664	38	21	
15	0	0	0	0	508	512	0	664	39	21	
0	0	0	0	0	505	512	0	671	38	21	
1	0	0	0	0	508	511	0	688	39	21	
2	0	0	0	0	508	512	0	689	39	21	
3	0	0	0	0	506	513	0	694	39	21	
4	0	0	0	0	507	512	1	699	39	21	
5	0	0	0	0	511	510	0	706	39	21	
6	0	0	0	0	514	511	0	702	38	21	
7	0	0	0	0	516	511	0	689	38	21	
8	0	0	0	0	513	512	0	683	39	21	
9	0	0	0	0	509	511	0	668	39	21	
10	0	0	0	0	514	510	0	647	39	21	
11	0	0	0	0	0	172	0	1017	39	21	
12	0	0	0	0	251	169	0	1019	39	21	
13	0	0	0	0	280	177	0	1017	39	21	
14	0	0	0	0	259	185	0	1018	38	21	
15	0	0	0	0	241	191	0	1017	39	21	
0	0	0	0	0	229	193	0	1018	39	21	
1	0	0	0	0	228	196	0	615	39	21	
2	0	0	0	0	217	200	0	0	39	21	
3	0	0	0	0	216	203	0	0	39	21	
4	0	0	0	0	216	205	0	0	39	21	
5	0	0	0	0	209	208	0	0	39	21	
6	0	0	0	0	924	541	0	0	38	21	
7	0	0	0	0	507	560	0	0	39	21	
8	0	0	0	0	444	549	0	0	39	21	
9	0	0	0	0	451	539	0	0	39	21	
10	0	0	0	0	469	534	0	0	39	21	
11	0	0	0	0	476	529	0	0	39	21	
12	0	0	0	0	489	525	0	0	39	21	
13	0	0	0	0	497	522	0	0	39	21	
14	0	0	0	0	495	519	0	0	38	21	
15	0	0	0	0	502	518	0	0	39	21	
0	0	0	0	0	503	518	0	0	39	21	
1	0	0	0	0	505	516	0	0	39	21	
2	0	0	0	0	510	514	0	0	39	21	
3	0	0	0	0	516	513	0	378	39	21	
4	0	0	0	0	504	514	0	627	39	21	
5	0	0	0	0	510	514	0	807	38	21	
6	0	0	0	0	515	512	0	933	38	21	
7	0	0	0	0	512	511	0	1018	38	21	
8	0	0	0	0	509	513	0	1019	38	21	
9	0	0	0	0	510	511	0	1018	39	21	
10	0	0	0	0	518	511	0	1018	39	21	
11	0	0	0	0	515	512	0	1018	39	21	
12	0	0	0	0	517	511	1	1019	39	21	
13	0	0	0	0	511	511	0	1018	39	21	
14	0	0	0	0	509	510	0	1018	38	21	
15	0	0	0	0	505	511	0	1018	38	21	
0	0	0	0	0	512	512	0	1019	38	21	
1	0	0	0	0	511	513	0	1018	39	21	
2	0	0	0	0	511	515	0	1018	39	21	
3	0	0	0	0	507	515	0	1018	39	21	
4	0	0	0	0	504	512	0	1018	39	21	
5	0	0	0	0	512	512	0	1018	39	21	
6	0	0	0	0	507	514	0	1018	38	21	
7	0	0	0	0	507	515	0	1018	39	21	
8	0	0	0	0	514	514	1	1019	38	21	
9	0	0	0	0	512	512	0	1018	39	21	
10	0	0	0	0	509	512	0	1018	39	21	
11	0	0	0	0	514	511	0	1018	39	21	
12	0	0	0	0	510	510	0	1018	39	21	
13	0	0	0	0	509	511	0	1018	39	21	
14	0	0	0	0	510	511	0	1018	38	21	
15	0	0	0	0	512	511	0	1018	39	21	
0	0	0	0	0	512	512	1	1019	38	21	
1	0	0	0	0	501	512	0	1018	39	21	
2	0	0	0	0	510	513	0	1018	39	21	
3	0	0	0	0	508	513	0	1018	39	21	
4	0	0	0	0	516	512	1	1019	39	21	
5	0	0	0	0	511	508	0	1018	39	21	
6	0	0	0	0	504	510	0	1018	38	21	
7	0	0	0	0	507	510	0	1018	39	21	
8	0	0	0	0	515	510	1	1019	38	21	
9	0	0	0	0	519	509	0	976	39	21	
10	0	0	0	0	508	509	0	954	39	21	
11	0	0	0	0	509	510	0	945	39	21	
12	0	0	0	0	511	510	0	934	39	21	
13	0	0	0	0	516	510	0	928	39	21	
14	0	0	0	0	505	511	0	941	38	21	
15	0	0	0	0	515	513	0	959	39	21	
0	0	0	0	0	506	513	0	968	39	21	
1	0	0	0	0	508	513	0	975	39	21	
2	0	0	0	0	514	513	0	980	39	21	
3	0	0	0	0	507	514	0	975	38	21	
4	0	0	0	0	510	514	1	967	39	21	
5	0	0	0	0	509	513	0	960	39	21	
6	0	0	0	0	507	513	0	938	38	21	
7	0	0	0	0	512	514	0	927	39	21	
8	0	0	0	0	511	512	0	904	39	21	
9	0	0	0	0	512	512	0	891	39	21	
10	0	0	0	0	509	512	0	874	39	21	
11	0	0	0	0	512	511	0	871	39	21	
12	0	0	0	0	513	510	1	879	39	21	
13	0	0	0	0	509	510	0	870	39	21	
14	0	0	0	0	508	511	0	866	38	21	
15	0	0	0	0	514	511	0	872	39	21	
0	0	0	0	0	515	512	0	890	39	21	
1	0	0	0	0	509	511	0	911	39	21	
2	0	0	0	0	506	514	0	929	39	21	
3	0	0	0	0	516	515	0	958	39	21	
4	0	0	0	0	506	517	1	983	39	21	
5	0	0	0	0	506	514	0	996	39	21	
6	0	0	0	0	511	512	0	988	38	21	
7	0	0	0	0	515	513	0	975	38	21	
8	0	0	0	0	504	513	0	958	38	21	
9	0	0	0	0	506	513	0	949	39	21	
10	0	0	0	0	518	512	0	936	39	21	
11	0	0	0	0	507	513	0	927	39	21	
12	0	0	0	0	510	515	1	932	39	21	
13	0	0	0	0	515	515	0	950	39	21	
14	0	0	0	0	509	516	0	958	38	21	
15	0	0	0	0	511	516	0	952	39	21	
0	0	0	0	0	510	515	1	940	38	21	
1	0	0	0	0	511	513	0	940	39	21	
2	0	0	0	0	514	512	0	936	39	21	
3	0	0	0	0	510	515	0	939	39	21	
4	0	0	0	0	510	514	1	940	39	21	
5	0	0	0	0	506	512	0	947	39	21	
6	0	0	0	0	506	514	0	944	38	21	
7	0	0	0	0	508	513	0	937	38	21	
8	0	0	0	0	507	514	0	934	38	21	
9	0	0	0	0	507	514	0	927	39	21	
10	0	0	0	0	504	515	0	927	39	21	
11	0	0	0	0	512	514	0	924	39	21	
12	0	0	0	0	508	512	0	909	39	21	
13	0	0	0	0	514	511	0	902	39	21	
14	0	0	0	0	508	510	0	903	38	21	
15	0	0	0	0	516	509	0	912	39	21	
0	0	0	0	0	511	510	0	927	39	21	
1	0	0	0	0	514	511	0	933	39	21	
2	0	0	0	0	505	511	0	934	39	21	
3	0	0	0	0	504	512	0	951	39	21	
4	0	0	0	0	509	513	1	949	39	21	
5	0	0	0	0	502	513	0	944	39	21	
6	0	0	0	0	514	512	0	944	38	21	
7	0	0	0	0	513	513	0	958	39	21	
8	0	0	0	0	510	512	0	955	39	21	
9	0	0	0	0	503	513	0	934	39	21	
10	0	0	0	0	508	512	0	900	39	21	
11	0	0	0	0	505	511	0	867	38	21	
12	0	0	0	0	515	513	1	848	39	21	
13	0	0	0	0	514	512	0	838	39	21	
14	0	0	0	0	514	511	0	834	38	21	
15	0	0	0	0	511	512	0	836	39	21	
0	0	0	0	0	518	513	1	827	38	21	
1	0	0	0	0	506	512	0	815	39	21	
2	0	0	0	0	516	513	0	803	39	21	
3	0	0	0	0	510	514	0	794	39	21	
4	0	0	0	0	504	515	0	774	39	21	
5	0	0	0	0	510	513	0	756	39	21	
6	0	0	0	0	510	511	0	750	38	21	
7	0	0	0	0	507	514	0	752	39	21	
8	0	0	0	0	502	512	0	760	39	21	
9	0	0	0	0	506	513	0	771	39	21	
10	0	0	0	0	512	515	0	766	39	21	
11	0	0	0	0	509	513	0	751	39	21	
12	0	0	0	0	513	512	0	728	39	21	
13	0	0	0	0	515	511	0	708	39	21	
14	0	0	0	0	513	510	0	689	38	21	
15	0	0	0	0	511	509	0	676	39	21	
0	0	0	0	0	509	508	0	669	39	21	
1	0	0	0	0	515	509	0	672	39	21	
2	0	0	0	0	517	509	0	668	39	21	
3	0	0	0	0	510	511	0	669	39	21	
4	0	0	0	0	503	512	0	673	39	21	
5	0	0	0	0	501	513	0	672	39	21	
6	0	0	0	0	507	513	0	681	38	21	
7	0	0	0	0	516	513	0	675	38	21	
8	0	0	0	0	512	513	0	673	39	21	
9	0	0	0	0	504	512	0	664	39	21	
10	0	0	0	0	505	510	0	649	39	21	
11	0	0	0	0	511	509	0	639	39	21	
12	0	0	0	0	506	509	0	638	39	21	
13	0	0	0	0	520	510	0	644	39	21	
14	0	0	0	0	512	510	0	648	38	21	
15	0	0	0	0	513	510	0	657	38	21	
0	0	0	0	0	515	509	0	662	39	21	
1	0	0	0	0	513	508	0	673	39	21	
2	0	0	0	0	509	510	0	676	39	21	
3	0	0	0	0	514	513	0	672	38	21	
4	0	0	0	0	519	512	0	662	39	21	
5	0	0	0	0	510	512	0	655	39	21	
6	0	0	0	0	506	512	0	649	38	21	
7	0	0	0	0	502	513	0	639	39	21	
8	0	0	0	0	510	514	1	641	38	21	
9	0	0	0	0	508	514	0	638	39	21	
10	0	0	0	0	506	512	0	630	39	21	
11	0	0	0	0	510	512	0	615	39	21	
12	0	0	0	0	501	509	0	594	39	21	
13	0	0	0	0	508	511	0	588	39	21	
14	0	0	0	0	509	511	0	588	38	21	
15	0	0	0	0	509	512	0	609	39	21	
0	0	0	0	0	511	513	0	630	39	21	
1	0	0	0	0	513	513	0	641	39	21	
2	0	0	0	0	515	513	0	643	39	21	
3	0	0	0	0	511	513	0	654	39	21	
4	0	0	0	0	512	512	0	666	39	21	
5	0	0	0	0	507	512	0	680	39	21	
6	0	0	0	0	509	512	0	689	38	21	
7	0	0	0	0	503	513	0	684	38	21	
8	0	0	0	0	504	514	1	670	38	21	
9	0	0	0	0	509	513	0	665	39	21	
10	0	0	0	0	506	511	0	664	39	21	
11	0	0	0	0	503	510	0	656	39	21	
12	0	0	0	0	513	512	0	652	39	21	
13	0	0	0	0	507	513	0	649	38	21	
14	0	0	0	0	508	512	0	662	38	21	
15	0	0	0	0	514	511	0	669	38	21	
0	0	0	0	0	520	510	0	685	38	21	
1	0	0	0	0	515	510	0	695	39	21	
2	0	0	0	0	510	511	0	695	39	21	
3	0	0	0	0	515	512	0	693	39	21	
4	0	0	0	0	510	512	0	687	39	21	
5	0	0	0	0	509	512	0	677	39	21	
6	0	0	0	0	512	513	0	661	38	21	
7	0	0	0	0	507	513	0	643	39	21	
8	0	0	0	0	510	515	1	608	38	21	
9	0	0	0	0	515	514	0	589	39	21	
10	0	0	0	0	509	511	0	566	39	21	
11	0	0	0	0	503	510	0	554	39	21	
12	0	0	0	0	503	510	0	531	39	21	
13	0	0	0	0	511	510	0	517	39	21	
14	0	0	0	0	512	509	0	502	38	21	
15	0	0	0	0	511	510	0	501	39	21	
0	0	0	0	0	510	511	0	500	39	21	
1	0	0	0	0	513	513	0	494	39	21	
2	0	0	0	0	513	513	0	499	39	21	
3	0	0	0	0	506	514	0	489	39	21	
4	0	0	0	0	505	515	0	492	39	21	
5	0	0	0	0	515	513	0	506	39	21	
6	0	0	0	0	512	514	0	524	38	21	
7	0	0	0	0	502	514	0	533	38	21	
8	0	0	0	0	507	513	1	542	38	21	
9	0	0	0	0	503	511	0	553	39	21	
10	0	0	0	0	511	511	0	544	39	21	
11	0	0	0	0	509	511	0	527	39	21	
12	0	0	0	0	497	511	0	503	39	21	
13	0	0	0	0	502	510	0	479	38	21	
14	0	0	0	0	510	510	0	458	38	21	
15	0	0	0	0	517	511	0	463	39	21	
0	0	0	0	0	506	511	0	472	39	21	
1	0	0	0	0	505	510	0	496	39	21	
2	0	0	0	0	517	509	0	530	39	21	
3	0	0	0	0	519	509	0	568	39	21	
4	0	0	0	0	514	509	0	601	39	21	
5	0	0	0	0	505	511	0	618	39	21	
6	0	0	0	0	510	511	0	625	38	21	
7	0	0	0	0	506	513	0	625	38	21	
8	0	0	0	0	507	512	0	623	38	21	
9	0	0	0	0	508	513	0	624	39	21	
10	0	0	0	0	514	513	0	626	39	21	
11	0	0	0	0	508	513	0	641	39	21	
12	0	0	0	0	503	511	0	634	39	21	
13	0	0	0	0	512	511	0	615	39	21	
14	0	0	0	0	511	510	0	598	38	21	
15	0	0	0	0	509	509	0	583	39	21	
0	0	0	0	0	506	510	0	575	38	21	
1	0	0	0	0	512	511	0	568	39	21	
2	0	0	0	0	0	173	0	1017	39	21	
3	0	0	0	0	246	171	0	1017	39	21	
4	0	0	0	0	276	180	0	1019	39	21	
5	0	0	0	0	258	187	0	1017	39	21	
6	0	0	0	0	246	191	0	1018	38	21	
7	0	0	0	0	242	198	0	1017	39	21	
8	0	0	0	0	230	201	0	498	38	21	
9	0	0	0	0	220	203	0	0	39	21	
10	0	0	0	0	222	205	0	0	39	21	
11	0	0	0	0	211	207	0	0	39	21	
12	0	0	0	0	211	207	0	0	39	21	
13	0	0	0	0	931	542	0	0	39	21	
14	0	0	0	0	499	556	0	0	38	21	
15	0	0	0	0	444	547	0	0	38	21	
0	0	0	0	0	458	541	0	0	38	21	
1	0	0	0	0	468	534	0	0	39	21	
2	0	0	0	0	480	530	0	0	39	21	
3	0	0	0	0	489	525	0	0	38	21	
4	0	0	0	0	493	523	0	0	39	21	
5	0	0	0	0	493	521	0	0	38	21	
6	0	0	0	0	503	519	0	0	38	21	
7	0	0	0	0	499	519	0	0	38	21	
8	0	0	0	0	504	518	0	0	39	21	
9	0	0	0	0	504	515	0	0	39	21	
10	0	0	0	0	506	515	0	415	39	21	
11	0	0	0	0	510	515	0	666	39	21	
12	0	0	0	0	507	514	0	855	39	21	
13	0	0	0	0	507	515	0	974	39	21	
14	0	0	0	0	515	515	0	1018	38	21	
15	0	0	0	0	508	516	0	1018	39	21	
0	0	0	0	0	509	515	0	1019	39	21	
1	0	0	0	0	519	515	0	1018	39	21	
2	0	0	0	0	513	516	0	1018	39	21	
3	0	0	0	0	514	515	0	1018	39	21	
4	0	0	0	0	509	515	1	1019	39	21	
5	0	0	0	0	512	513	0	1018	39	21	
6	0	0	0	0	523	514	0	1018	38	21	
7	0	0	0	0	514	514	0	1018	39	21	
8	0	0	0	0	510	512	0	1018	39	21	
9	0	0	0	0	507	513	0	1018	39	21	
10	0	0	0	0	507	513	0	1018	39	21	
11	0	0	0	0	510	514	0	1018	39	21	
12	0	0	0	0	509	512	0	1019	39	21	
13	0	0	0	0	506	510	0	1018	38	21	
14	0	0	0	0	505	511	0	1018	38	21	
15	0	0	0	0	512	513	0	1018	38	21	
0	0	0	0	0	510	513	1	1019	38	21	
1	0	0	0	0	507	511	0	1018	39	21	
2	0	0	0	0	511	512	0	1018	39	21	
3	0	0	0	0	510	511	0	1018	38	21	
4	0	0	0	0	512	511	0	1019	39	21	
5	0	0	0	0	510	507	0	1018	39	21	
6	0	0	0	0	508	508	0	1018	38	21	
7	0	0	0	0	510	507	0	1005	39	21	
8	0	0	0	0	514	507	0	1014	38	21	
9	0	0	0	0	514	510	0	1018	39	21	
10	0	0	0	0	512	510	0	1018	39	21	
11	0	0	0	0	509	509	0	1018	39	21	
12	0	0	0	0	503	512	0	1017	38	21	
13	0	0	0	0	511	512	0	1018	39	21	
14	0	0	0	0	503	512	0	1018	38	21	
15	0	0	0	0	510	514	0	1018	39	21	
0	0	0	0	0	514	513	0	1019	39	21	
1	0	0	0	0	499	512	0	988	39	21	
2	0	0	0	0	512	511	0	975	39	21	
3	0	0	0	0	505	513	0	974	38	21	
4	0	0	0	0	520	511	0	967	39	21	
5	0	0	0	0	520	510	0	972	38	21	
6	0	0	0	0	513	510	0	984	38	21	
7	0	0	0	0	512	511	0	992	38	21	
8	0	0	0	0	514	512	0	993	39	21	
9	0	0	0	0	516	511	0	992	39	21	
10	0	0	0	0	511	511	0	989	39	21	
11	0	0	0	0	508	511	0	978	39	21	
12	0	0	0	0	508	512	0	958	39	21	
13	0	0	0	0	508	513	0	936	39	21	
14	0	0	0	0	503	513	0	931	38	21	
15	0	0	0	0	510	514	0	917	39	21	
0	0	0	0	0	506	511	0	896	38	21	
1	0	0	0	0	512	509	0	877	39	21	
2	0	0	0	0	509	509	0	854	39	21	
3	0	0	0	0	511	511	0	847	39	21	
4	0	0	0	0	517	512	0	852	39	21	
5	0	0	0	0	515	511	0	860	39	21	
6	0	0	0	0	512	512	0	875	38	21	
7	0	0	0	0	503	512	0	896	39	21	
8	0	0	0	0	514	512	0	908	39	21	
9	0	0	0	0	509	514	0	912	39	21	
10	0	0	0	0	516	512	0	914	39	21	
11	0	0	0	0	511	513	0	923	39	21	
12	0	0	0	0	504	513	1	918	39	21	
13	0	0	0	0	508	514	0	903	39	21	
14	0	0	0	0	513	513	0	901	38	21	
15	0	0	0	0	510	514	0	906	39	21	
0	0	0	0	0	497	512	0	902	39	21	
1	0	0	0	0	508	509	0	882	39	21	
2	0	0	0	0	507	509	0	857	39	21	
3	0	0	0	0	509	512	0	831	38	21	
4	0	0	0	0	513	511	0	819	39	21	
5	0	0	0	0	513	511	0	817	39	21	
6	0	0	0	0	503	511	0	822	38	21	
7	0	0	0	0	509	510	0	830	39	21	
8	0	0	0	0	512	512	0	824	39	21	
9	0	0	0	0	514	512	0	819	39	21	
10	0	0	0	0	518	514	0	820	39	21	
11	0	0	0	0	508	515	0	825	39	21	
12	0	0	0	0	508	512	1	821	39	21	
13	0	0	0	0	510	511	0	815	39	21	
14	0	0	0	0	513	511	0	801	38	21	
15	0	0	0	0	509	511	0	791	38	21	
0	0	0	0	0	506	511	0	777	38	21	
1	0	0	0	0	509	510	0	759	39	21	
2	0	0	0	0	499	511	0	741	39	21	
3	0	0	0	0	504	511	0	736	39	21	
4	0	0	0	0	505	510	0	730	39	21	
5	0	0	0	0	513	512	0	724	39	21	
6	0	0	0	0	515	512	0	734	38	21	
7	0	0	0	0	506	511	0	736	39	21	
8	0	0	0	0	513	511	0	742	39	21	
9	0	0	0	0	513	510	0	751	39	21	
10	0	0	0	0	512	512	0	760	39	21	
11	0	0	0	0	508	513	0	766	39	21	
12	0	0	0	0	512	514	1	761	39	21	
13	0	0	0	0	508	512	0	761	39	21	
14	0	0	0	0	506	513	0	772	38	21	
15	0	0	0	0	511	512	0	789	39	21	
0	0	0	0	0	515	514	1	796	38	21	
1	0	0	0	0	504	512	0	784	39	21	
2	0	0	0	0	504	512	0	768	39	21	
3	0	0	0	0	502	513	0	754	39	21	
4	0	0	0	0	512	513	0	743	39	21	
5	0	0	0	0	521	512	0	735	39	21	
6	0	0	0	0	508	511	0	709	38	21	
7	0	0	0	0	512	511	0	691	39	21	
8	0	0	0	0	517	511	1	681	38	21	
9	0	0	0	0	510	508	0	686	39	21	
10	0	0	0	0	511	507	0	673	39	21	
11	0	0	0	0	509	510	0	694	39	21	
12	0	0	0	0	512	512	1	719	39	21	
13	0	0	0	0	509	511	0	742	39	21	
14	0	0	0	0	509	511	0	766	38	21	
15	0	0	0	0	511	512	0	780	39	21	
0	0	0	0	0	505	511	0	769	39	21	
1	0	0	0	0	515	509	0	750	39	21	
2	0	0	0	0	511	510	0	705	39	21	
3	0	0	0	0	506	508	0	657	39	21	
4	0	0	0	0	500	507	1	625	39	21	
5	0	0	0	0	514	509	0	603	39	21	
6	0	0	0	0	510	509	0	588	38	21	
7	0	0	0	0	504	508	0	575	38	21	
8	0	0	0	0	511	508	0	569	38	21	
9	0	0	0	0	518	509	0	561	39	21	
10	0	0	0	0	511	511	0	540	39	21	
11	0	0	0	0	512	511	0	534	39	21	
12	0	0	0	0	514	510	0	530	39	21	
13	0	0	0	0	511	513	0	539	39	21	
14	0	0	0	0	508	514	0	532	38	21	
15	0	0	0	0	505	514	0	538	39	21	
0	0	0	0	0	513	514	0	534	39	21	
1	0	0	0	0	512	512	0	534	39	21	
2	0	0	0	0	506	513	0	531	39	21	
3	0	0	0	0	504	515	0	544	39	21	
4	0	0	0	0	501	512	0	546	39	21	
5	0	0	0	0	517	510	0	534	39	21	
6	0	0	0	0	517	510	0	532	38	21	
7	0	0	0	0	509	510	0	528	38	21	
8	0	0	0	0	508	508	0	519	39	21	
9	0	0	0	0	511	509	0	512	39	21	
10	0	0	0	0	513	508	0	515	39	21	
11	0	0	0	0	513	509	0	520	39	21	
12	0	0	0	0	511	510	0	526	39	21	
13	0	0	0	0	505	509	0	536	39	21	
14	0	0	0	0	511	510	0	547	38	21	
15	0	0	0	0	518	511	0	555	39	21	
0	0	0	0	0	508	512	0	548	38	21	
1	0	0	0	0	505	512	0	536	39	21	
2	0	0	0	0	504	513	0	526	39	21	
3	0	0	0	0	504	514	0	515	39	21	
4	0	0	0	0	501	514	0	513	39	21	
5	0	0	0	0	511	512	0	532	39	21	
6	0	0	0	0	518	511	0	550	38	21	
7	0	0	0	0	507	511	0	564	39	21	
8	0	0	0	0	506	513	0	580	38	21	
9	0	0	0	0	509	513	0	585	39	21	
10	0	0	0	0	515	513	0	590	39	21	
11	0	0	0	0	517	512	0	607	39	21	
12	0	0	0	0	515	512	1	632	39	21	
13	0	0	0	0	504	511	0	638	39	21	
14	0	0	0	0	516	510	0	647	38	21	
15	0	0	0	0	508	512	0	668	39	21	
0	0	0	0	0	506	512	0	675	39	21	
1	0	0	0	0	513	512	0	659	39	21	
2	0	0	0	0	511	515	0	643	39	21	
3	0	0	0	0	508	516	0	632	39	21	
4	0	0	0	0	502	515	0	615	39	21	
5	0	0	0	0	504	515	0	596	39	21	
6	0	0	0	0	515	514	0	580	38	21	
7	0	0	0	0	508	513	0	580	39	21	
8	0	0	0	0	509	511	0	568	39	21	
9	0	0	0	0	503	511	0	546	39	21	
10	0	0	0	0	510	512	0	533	39	21	
11	0	0	0	0	510	515	0	520	39	21	
12	0	0	0	0	511	515	0	516	39	21	
13	0	0	0	0	515	514	0	520	39	21	
14	0	0	0	0	516	514	0	539	38	21	
15	0	0	0	0	508	514	0	540	39	21	
0	0	0	0	0	510	515	0	547	39	21	
1	0	0	0	0	512	515	0	561	39	21	
2	0	0	0	0	503	515	0	569	39	21	
3	0	0	0	0	509	514	0	583	39	21	
4	0	0	0	0	513	514	0	596	39	21	
5	0	0	0	0	510	512	0	609	39	21	
6	0	0	0	0	511	513	0	608	38	21	
7	0	0	0	0	509	512	0	615	38	21	
8	0	0	0	0	509	514	1	625	38	21	
9	0	0	0	0	510	514	0	639	39	21	
10	0	0	0	0	511	512	0	643	39	21	
11	0	0	0	0	508	511	0	644	39	21	
12	0	0	0	0	509	510	0	650	39	21	
13	0	0	0	0	511	511	0	648	39	21	
14	0	0	0	0	504	510	0	641	38	21	
15	0	0	0	0	506	511	0	629	38	21	
0	0	0	0	0	519	510	0	624	38	21	
1	0	0	0	0	513	508	0	624	39	21	
2	0	0	0	0	508	511	0	607	39	21	
3	0	0	0	0	513	512	0	572	39	21	
4	0	0	0	0	509	514	0	542	38	21	
5	0	0	0	0	506	514	0	525	38	21	
6	0	0	0	0	515	512	0	516	38	21	
7	0	0	0	0	505	513	0	506	38	21	
8	0	0	0	0	511	515	0	483	38	21	
9	0	0	0	0	510	512	0	455	39	21	
10	0	0	0	0	518	512	0	433	39	21	
11	0	0	0	0	511	512	0	417	39	21	
12	0	0	0	0	514	512	1	406	39	21	
13	0	0	0	0	506	512	0	407	39	21	
14	0	0	0	0	518	511	0	420	38	21	
15	0	0	0	0	504	511	0	454	39	21	
0	0	0	0	0	506	511	0	481	39	21	
1	0	0	0	0	511	512	0	515	39	21	
2	0	0	0	0	508	514	0	543	39	21	
3	0	0	0	0	515	516	0	551	39	21	
4	0	0	0	0	510	513	0	563	39	21	
5	0	0	0	0	506	512	0	564	39	21	
6	0	0	0	0	502	512	0	554	38	21	
7	0	0	0	0	506	512	0	548	39	21	
8	0	0	0	0	510	512	1	543	38	21	
9	0	0	0	0	508	511	0	540	39	21	
10	0	0	0	0	510	511	0	532	39	21	
11	0	0	0	0	507	509	0	535	39	21	
12	0	0	0	0	508	508	0	551	39	21	
13	0	0	0	0	516	508	0	554	39	21	
14	0	0	0	0	515	507	0	558	38	21	
15	0	0	0	0	507	511	0	582	38	21	
0	0	0	0	0	519	510	0	602	39	21	
1	0	0	0	0	0	199	0	1017	39	21	
2	0	0	0	0	205	169	0	1017	39	21	
3	0	0	0	0	275	177	0	1017	39	21	
4	0	0	0	0	263	182	0	1018	39	21	
5	0	0	0	0	249	189	0	1017	39	21	
6	0	0	0	0	240	195	0	1017	38	21	
7	0	0	0	0	228	200	0	1016	39	21	
8	0	0	0	0	220	200	0	0	39	21	
9	0	0	0	0	218	203	0	0	39	21	
10	0	0	0	0	222	204	0	0	39	21	
11	0	0	0	0	209	205	0	0	38	21	
12	0	0	0	0	925	540	0	0	39	21	
13	0	0	0	0	504	556	0	0	38	21	
14	0	0	0	0	444	547	0	0	38	21	
15	0	0	0	0	459	540	0	0	38	21	
0	0	0	0	0	469	533	0	0	39	21	
1	0	0	0	0	480	528	0	0	39	21	
2	0	0	0	0	481	525	0	0	39	21	
3	0	0	0	0	490	522	0	0	39	21	
4	0	0	0	0	488	518	0	0	39	21	
5	0	0	0	0	500	517	0	0	39	21	
6	0	0	0	0	503	517	0	0	38	21	
7	0	0	0	0	508	515	0	0	39	21	
8	0	0	0	0	514	515	0	0	38	21	
9	0	0	0	0	508	516	0	256	39	21	
10	0	0	0	0	507	514	0	505	39	21	
11	0	0	0	0	513	513	0	698	39	21	
12	0	0	0	0	508	511	0	840	39	21	
13	0	0	0	0	507	512	0	934	39	21	
14	0	0	0	0	521	514	0	1003	38	21	
15	0	0	0	0	515	513	0	1018	39	21	
0	0	0	0	0	514	512	0	1018	38	21	
1	0	0	0	0	508	512	0	1018	39	21	
2	0	0	0	0	516	510	0	1018	39	21	
3	0	0	0	0	512	510	0	1018	39	21	
4	0	0	0	0	506	509	1	1019	39	21	
5	0	0	0	0	507	509	0	1018	39	21	
6	0	0	0	0	507	511	0	1018	38	21	
7	0	0	0	0	507	511	0	1018	39	21	
8	0	0	0	0	507	511	1	1019	38	21	
9	0	0	0	0	512	511	0	1018	39	21	
10	0	0	0	0	508	512	0	1018	39	21	
11	0	0	0	0	512	512	0	1018	38	21	
12	0	0	0	0	516	510	0	1019	39	21	
13	0	0	0	0	510	509	0	1018	39	21	
14	0	0	0	0	514	508	0	1018	38	21	
15	0	0	0	0	514	510	0	1018	39	21	
0	0	0	0	0	509	511	1	1019	38	21	
1	0	0	0	0	510	509	0	1018	39	21	
2	0	0	0	0	504	510	0	1018	39	21	
3	0	0	0	0	506	511	0	1018	39	21	
4	0	0	0	0	515	511	1	1019	39	21	
5	0	0	0	0	511	512	0	1018	38	21	
6	0	0	0	0	514	511	0	1018	38	21	
7	0	0	0	0	509	511	0	1018	39	21	
8	0	0	0	0	508	511	0	1019	38	21	
9	0	0	0	0	511	510	0	1018	39	21	
10	0	0	0	0	519	510	0	1018	39	21	
11	0	0	0	0	505	512	0	1018	39	21	
12	0	0	0	0	513	512	1	1019	39	21	
13	0	0	0	0	509	512	0	1018	39	21	
14	0	0	0	0	516	513	0	1018	38	21	
15	0	0	0	0	511	513	0	965	39	21	
0	0	0	0	0	516	513	0	936	38	21	
1	0	0	0	0	514	514	0	926	39	21	
2	0	0	0	0	502	513	0	926	39	21	
3	0	0	0	0	511	515	0	934	39	21	
4	0	0	0	0	512	512	0	949	39	21	
5	0	0	0	0	499	513	0	968	39	21	
6	0	0	0	0	507	515	0	945	38	21	
7	0	0	0	0	510	514	0	936	39	21	
8	0	0	0	0	509	511	0	920	38	21	
9	0	0	0	0	505	512	0	904	39	21	
10	0	0	0	0	512	513	0	898	39	21	
11	0	0	0	0	505	515	0	891	39	21	
12	0	0	0	0	515	515	0	867	39	21	
13	0	0	0	0	511	513	0	848	39	21	
14	0	0	0	0	506	513	0	838	38	21	
15	0	0	0	0	516	512	0	844	39	21	
0	0	0	0	0	511	512	0	851	39	21	
1	0	0	0	0	509	510	0	844	39	21	
2	0	0	0	0	514	509	0	846	39	21	
3	0	0	0	0	513	511	0	852	39	21	
4	0	0	0	0	517	512	0	858	39	21	
5	0	0	0	0	509	513	0	871	39	21	
6	0	0	0	0	503	513	0	863	38	21	
7	0	0	0	0	502	514	0	861	38	21	
8	0	0	0	0	513	515	0	856	39	21	
9	0	0	0	0	509	514	0	853	39	21	
10	0	0	0	0	509	515	0	837	39	21	
11	0	0	0	0	502	516	0	814	39	21	
12	0	0	0	0	510	516	1	793	39	21	
13	0	0	0	0	512	515	0	777	38	21	
14	0	0	0	0	511	515	0	763	38	21	
15	0	0	0	0	508	517	0	748	39	21	
0	0	0	0	0	515	516	0	760	38	21	
1	0	0	0	0	513	514	0	769	39	21	
2	0	0	0	0	517	513	0	764	39	21	
3	0	0	0	0	511	515	0	773	39	21	
4	0	0	0	0	508	514	0	778	39	21	
5	0	0	0	0	512	515	0	796	39	21	
6	0	0	0	0	507	516	0	816	38	21	
7	0	0	0	0	511	519	0	820	39	21	
8	0	0	0	0	503	517	0	814	39	21	
9	0	0	0	0	504	517	0	806	39	21	
10	0	0	0	0	507	515	0	793	39	21	
11	0	0	0	0	506	514	0	780	39	21	
12	0	0	0	0	508	513	0	762	39	21	
13	0	0	0	0	506	513	0	753	39	21	
14	0	0	0	0	511	514	0	755	38	21	
15	0	0	0	0	515	511	0	753	39	21	
0	0	0	0	0	514	511	1	735	38	21	
1	0	0	0	0	509	512	0	737	39	21	
2	0	0	0	0	518	513	0	744	39	21	
3	0	0	0	0	513	513	0	764	39	21	
4	0	0	0	0	514	513	1	773	39	21	
5	0	0	0	0	507	511	0	780	38	21	
6	0	0	0	0	517	511	0	780	38	21	
7	0	0	0	0	506	512	0	771	38	21	
8	0	0	0	0	500	513	1	761	38	21	
9	0	0	0	0	505	511	0	752	39	21	
10	0	0	0	0	512	512	0	724	39	21	
11	0	0	0	0	507	512	0	715	39	21	
12	0	0	0	0	505	511	0	716	39	21	
13	0	0	0	0	509	513	0	696	39	21	
14	0	0	0	0	506	512	0	672	38	21	
15	0	0	0	0	514	512	0	667	39	21	
0	0	0	0	0	507	512	0	647	38	21	
1	0	0	0	0	515	515	0	646	39	21	
2	0	0	0	0	511	513	0	671	39	21	
3	0	0	0	0	513	513	0	694	39	21	
4	0	0	0	0	510	511	0	712	39	21	
5	0	0	0	0	510	512	0	743	39	21	
6	0	0	0	0	514	511	0	758	38	21	
7	0	0	0	0	508	512	0	772	39	21	
8	0	0	0	0	505	513	1	779	38	21	
9	0	0	0	0	512	512	0	790	39	21	
10	0	0	0	0	508	512	0	796	39	21	
11	0	0	0	0	508	512	0	796	39	21	
12	0	0	0	0	501	511	1	784	39	21	
13	0	0	0	0	510	511	0	762	39	21	
14	0	0	0	0	510	510	0	756	38	21	
15	0	0	0	0	505	511	0	757	39	21	
0	0	0	0	0	514	512	1	755	38	21	
1	0	0	0	0	519	512	0	743	39	21	
2	0	0	0	0	511	515	0	724	39	21	
3	0	0	0	0	508	515	0	715	39	21	
4	0	0	0	0	509	514	0	710	39	21	
5	0	0	0	0	512	513	0	706	39	21	
6	0	0	0	0	514	515	0	701	38	21	
7	0	0	0	0	509	514	0	715	39	21	
8	0	0	0	0	510	514	1	723	38	21	
9	0	0	0	0	504	512	0	720	39	21	
10	0	0	0	0	512	512	0	719	39	21	
11	0	0	0	0	509	512	0	716	39	21	
12	0	0	0	0	509	511	0	715	39	21	
13	0	0	0	0	506	512	0	701	39	21	
14	0	0	0	0	511	511	0	681	38	21	
15	0	0	0	0	510	510	0	676	38	21	
0	0	0	0	0	510	509	0	676	39	21	
1	0	0	0	0	514	511	0	660	39	21	
2	0	0	0	0	514	514	0	644	39	21	
3	0	0	0	0	510	515	0	641	39	21	
4	0	0	0	0	516	512	0	631	39	21	
5	0	0	0	0	511	512	0	632	38	21	
6	0	0	0	0	509	512	0	633	38	21	
7	0	0	0	0	511	513	0	647	39	21	
8	0	0	0	0	518	512	0	650	39	21	
9	0	0	0	0	508	512	0	649	39	21	
10	0	0	0	0	510	512	0	644	39	21	
11	0	0	0	0	508	513	0	638	39	21	
12	0	0	0	0	510	515	1	609	39	21	
13	0	0	0	0	511	513	0	579	38	21	
14	0	0	0	0	512	513	0	559	38	21	
15	0	0	0	0	510	515	0	548	38	21	
0	0	0	0	0	508	514	0	539	39	21	
1	0	0	0	0	516	515	0	531	39	21	
2	0	0	0	0	510	515	0	540	39	21	
3	0	0	0	0	513	516	0	561	39	21	
4	0	0	0	0	511	513	0	570	39	21	
5	0	0	0	0	514	514	0	575	39	21	
6	0	0	0	0	519	512	0	590	38	21	
7	0	0	0	0	507	510	0	624	38	21	
8	0	0	0	0	503	510	0	660	39	21	
9	0	0	0	0	510	510	0	675	39	21	
10	0	0	0	0	500	512	0	678	39	21	
11	0	0	0	0	512	513	0	690	39	21	
12	0	0	0	0	512	515	1	709	39	21	
13	0	0	0	0	510	513	0	723	39	21	
14	0	0	0	0	505	513	0	711	38	21	
15	0	0	0	0	505	512	0	690	39	21	
0	0	0	0	0	510	510	0	667	39	21	
1	0	0	0	0	504	509	0	634	39	21	
2	0	0	0	0	515	508	0	607	39	21	
3	0	0	0	0	524	510	0	573	39	21	
4	0	0	0	0	515	510	0	557	39	21	
5	0	0	0	0	511	511	0	553	39	21	
6	0	0	0	0	508	511	0	568	38	21	
7	0	0	0	0	511	513	0	590	39	21	
8	0	0	0	0	510	515	0	618	39	21	
9	0	0	0	0	510	516	0	619	39	21	
10	0	0	0	0	503	515	0	620	39	21	
11	0	0	0	0	505	517	0	614	39	21	
12	0	0	0	0	509	516	0	590	39	21	
13	0	0	0	0	508	515	0	579	39	21	
14	0	0	0	0	511	515	0	575	38	21	
15	0	0	0	0	508	513	0	566	39	21	
0	0	0	0	0	515	511	0	547	39	21	
1	0	0	0	0	500	510	0	534	39	21	
2	0	0	0	0	521	511	0	531	39	21	
3	0	0	0	0	508	511	0	541	39	21	
4	0	0	0	0	507	512	1	532	39	21	
5	0	0	0	0	511	510	0	511	39	21	
6	0	0	0	0	514	511	0	493	38	21	
7	0	0	0	0	511	510	0	479	38	21	
8	0	0	0	0	508	511	0	474	38	21	
9	0	0	0	0	511	509	0	467	38	21	
10	0	0	0	0	505	510	0	463	39	21	
11	0	0	0	0	511	512	0	462	39	21	
12	0	0	0	0	511	512	0	462	39	21	
13	0	0	0	0	507	513	0	483	39	21	
14	0	0	0	0	508	515	0	486	38	21	
15	0	0	0	0	511	513	0	493	39	21	
0	0	0	0	0	511	512	0	483	39	21	
1	0	0	0	0	508	511	0	486	39	21	
2	0	0	0	0	515	511	0	474	39	21	
3	0	0	0	0	510	509	0	463	39	21	
4	0	0	0	0	511	510	0	468	39	21	
5	0	0	0	0	507	509	0	467	38	21	
6	0	0	0	0	510	509	0	455	38	21	
7	0	0	0	0	519	510	0	444	39	21	
8	0	0	0	0	515	511	0	428	38	21	
9	0	0	0	0	503	510	0	424	39	21	
10	0	0	0	0	504	510	0	445	39	21	
11	0	0	0	0	510	509	0	465	39	21	
12	0	0	0	0	510	509	0	475	39	21	
13	0	0	0	0	515	509	0	476	39	21	
14	0	0	0	0	515	510	0	484	38	21	
15	0	0	0	0	507	511	0	480	39	21	
0	0	0	0	0	506	512	0	466	38	21	
1	0	0	0	0	507	512	0	455	39	21	
2	0	0	0	0	507	513	0	455	39	21	
3	0	0	0	0	505	514	0	452	39	21	
4	0	0	0	0	512	512	0	452	39	21	
5	0	0	0	0	514	512	0	464	39	21	
6	0	0	0	0	521	513	0	459	38	21	
7	0	0	0	0	510	513	0	448	39	21	
8	0	0	0	0	510	515	0	449	38	21	
9	0	0	0	0	509	513	0	464	39	21	
10	0	0	0	0	511	514	0	481	39	21	
11	0	0	0	0	512	514	0	504	39	21	
12	0	0	0	0	500	514	0	520	39	21	
13	0	0	0	0	505	514	0	534	39	21	
14	0	0	0	0	514	513	0	556	38	21	
15	0	0	0	0	509	513	0	562	39	21	
0	0	0	0	0	509	514	0	565	38	21	
1	0	0	0	0	507	513	0	555	39	21	
2	0	0	0	0	0	171	0	1017	39	21	
3	0	0	0	0	256	172	0	1017	39	21	
4	0	0	0	0	270	179	0	1018	39	21	
5	0	0	0	0	259	186	0	1017	39	21	
6	0	0	0	0	250	192	0	1017	38	21	
7	0	0	0	0	236	197	0	1017	39	21	
8	0	0	0	0	236	200	0	339	38	21	
9	0	0	0	0	227	202	0	0	39	21	
10	0	0	0	0	220	205	0	0	39	21	
11	0	0	0	0	211	207	0	0	39	21	
12	0	0	0	0	948	543	0	0	39	21	
13	0	0	0	0	501	558	0	0	39	21	
14	0	0	0	0	437	547	0	0	38	21	
15	0	0	0	0	445	540	0	0	39	21	
0	0	0	0	0	466	533	0	0	38	21	
1	0	0	0	0	473	527	0	0	39	21	
2	0	0	0	0	491	521	0	0	39	21	
3	0	0	0	0	491	519	0	0	39	21	
4	0	0	0	0	493	516	0	0	39	21	
5	0	0	0	0	508	513	0	0	39	21	
6	0	0	0	0	505	513	0	0	38	21	
7	0	0	0	0	510	513	0	0	39	21	
8	0	0	0	0	501	512	0	0	38	21	
9	0	0	0	0	510	512	0	302	39	21	
10	0	0	0	0	509	513	0	568	39	21	
11	0	0	0	0	512	514	0	774	39	21	
12	0	0	0	0	514	513	0	927	39	21	
13	0	0	0	0	510	514	0	1018	39	21	
14	0	0	0	0	505	513	0	1018	38	21	
15	0	0	0	0	506	514	0	1018	38	21	
0	0	0	0	0	513	513	0	1019	38	21	
1	0	0	0	0	508	511	0	1018	39	21	
2	0	0	0	0	512	511	0	1018	39	21	
3	0	0	0	0	509	511	0	1018	39	21	
4	0	0	0	0	507	509	0	1018	39	21	
5	0	0	0	0	518	509	0	1018	38	21	
6	0	0	0	0	511	510	0	1018	38	21	
7	0	0	0	0	514	512	0	1018	39	21	
8	0	0	0	0	514	510	0	1018	38	21	
9	0	0	0	0	514	510	0	1018	39	21	
10	0	0	0	0	512	510	0	1018	39	21	
11	0	0	0	0	514	512	0	1018	39	21	
12	0	0	0	0	508	511	0	1019	39	21	
13	0	0	0	0	515	513	0	1018	39	21	
14	0	0	0	0	508	512	0	1018	38	21	
15	0	0	0	0	503	510	0	1018	39	21	
0	0	0	0	0	506	510	0	1019	39	21	
1	0	0	0	0	515	511	0	1018	39	21	
2	0	0	0	0	509	513	0	1018	39	21	
3	0	0	0	0	506	512	0	1018	39	21	
4	0	0	0	0	505	511	0	1019	39	21	
5	0	0	0	0	506	510	0	1017	39	21	
6	0	0	0	0	505	511	0	976	38	21	
7	0	0	0	0	512	512	0	966	38	21	
8	0	0	0	0	514	513	1	950	38	21	
9	0	0	0	0	509	511	0	912	39	21	
10	0	0	0	0	514	511	0	899	39	21	
11	0	0	0	0	518	512	0	887	39	21	
12	0	0	0	0	511	510	0	895	39	21	
13	0	0	0	0	512	510	0	912	39	21	
14	0	0	0	0	512	511	0	927	38	21	
15	0	0	0	0	510	511	0	947	38	21	
0	0	0	0	0	508	510	0	961	39	21	
1	0	0	0	0	504	510	0	961	39	21	
2	0	0	0	0	510	510	0	941	39	21	
3	0	0	0	0	513	511	0	930	39	21	
4	0	0	0	0	502	511	1	918	39	21	
5	0	0	0	0	507	509	0	917	39	21	
6	0	0	0	0	505	510	0	906	38	21	
7	0	0	0	0	517	508	0	889	38	21	
8	0	0	0	0	511	507	0	875	38	21	
9	0	0	0	0	515	506	0	878	39	21	
10	0	0	0	0	514	508	0	889	39	21	
11	0	0	0	0	515	509	0	901	39	21	
12	0	0	0	0	508	510	0	911	39	21	
13	0	0	0	0	507	512	0	928	38	21	
14	0	0	0	0	521	512	0	949	38	21	
15	0	0	0	0	512	512	0	963	39	21	
0	0	0	0	0	508	512	1	959	38	21	
1	0	0	0	0	506	512	0	948	39	21	
2	0	0	0	0	504	511	0	940	39	21	
3	0	0	0	0	509	512	0	916	39	21	
4	0	0	0	0	510	514	1	887	39	21	
5	0	0	0	0	511	512	0	850	39	21	
6	0	0	0	0	508	512	0	817	38	21	
7	0	0	0	0	508	511	0	782	39	21	
8	0	0	0	0	511	511	0	778	39	21	
9	0	0	0	0	508	508	0	776	39	21	
10	0	0	0	0	520	508	0	778	39	21	
11	0	0	0	0	511	509	0	781	39	21	
12	0	0	0	0	512	510	1	794	39	21	
13	0	0	0	0	516	507	0	817	39	21	
14	0	0	0	0	513	507	0	825	38	21	
15	0	0	0	0	511	508	0	840	39	21	
0	0	0	0	0	507	510	1	855	38	21	
1	0	0	0	0	507	509	0	865	39	21	
2	0	0	0	0	508	510	0	867	39	21	
3	0	0	0	0	506	510	0	866	39	21	
4	0	0	0	0	513	509	0	864	39	21	
5	0	0	0	0	510	511	0	847	39	21	
6	0	0	0	0	513	511	0	837	38	21	
7	0	0	0	0	500	510	0	840	39	21	
8	0	0	0	0	504	511	1	847	38	21	
9	0	0	0	0	511	511	0	842	39	21	
10	0	0	0	0	512	511	0	827	39	21	
11	0	0	0	0	516	512	0	813	39	21	
12	0	0	0	0	511	512	1	812	39	21	
13	0	0	0	0	509	511	0	809	39	21	
14	0	0	0	0	513	512	0	806	38	21	
15	0	0	0	0	504	513	0	811	38	21	
0	0	0	0	0	508	514	1	825	38	21	
1	0	0	0	0	517	512	0	845	39	21	
2	0	0	0	0	518	513	0	865	39	21	
3	0	0	0	0	503	512	0	872	38	21	
4	0	0	0	0	509	513	0	881	39	21	
5	0	0	0	0	505	512	0	889	38	21	
6	0	0	0	0	504	512	0	884	38	21	
7	0	0	0	0	514	514	0	872	38	21	
8	0	0	0	0	507	513	0	871	39	21	
9	0	0	0	0	513	512	0	865	39	21	
10	0	0	0	0	507	512	0	861	39	21	
11	0	0	0	0	518	512	0	866	39	21	
12	0	0	0	0	513	513	1	879	39	21	
13	0	0	0	0	506	512	0	892	39	21	
14	0	0	0	0	515	512	0	898	38	21	
15	0	0	0	0	509	513	0	901	38	21	
0	0	0	0	0	513	515	1	900	38	21	
1	0	0	0	0	502	513	0	910	39	21	
2	0	0	0	0	515	513	0	900	39	21	
3	0	0	0	0	511	514	0	882	38	21	
4	0	0	0	0	509	513	0	844	39	21	
5	0	0	0	0	513	512	0	811	39	21	
6	0	0	0	0	500	513	0	798	38	21	
7	0	0	0	0	509	512	0	786	38	21	
8	0	0	0	0	510	512	1	768	38	21	
9	0	0	0	0	510	513	0	766	39	21	
10	0	0	0	0	508	513	0	769	39	21	
11	0	0	0	0	509	514	0	764	39	21	
12	0	0	0	0	518	514	1	761	39	21	
13	0	0	0	0	518	512	0	771	39	21	
14	0	0	0	0	513	514	0	770	38	21	
15	0	0	0	0	509	515	0	770	39	21	
0	0	0	0	0	519	513	1	769	38	21	
1	0	0	0	0	510	510	0	784	39	21	
2	0	0	0	0	511	509	0	788	39	21	
3	0	0	0	0	511	508	0	796	39	21	
4	0	0	0	0	507	508	1	789	39	21	
5	0	0	0	0	504	511	0	784	39	21	
6	0	0	0	0	509	511	0	770	38	21	
7	0	0	0	0	500	512	0	752	38	21	
8	0	0	0	0	508	510	0	741	39	21	
9	0	0	0	0	507	511	0	726	39	21	
10	0	0	0	0	513	512	0	702	39	21	
11	0	0	0	0	511	512	0	693	39	21	
12	0	0	0	0	515	512	1	676	39	21	
13	0	0	0	0	514	513	0	691	39	21	
14	0	0	0	0	511	513	0	709	38	21	
15	0	0	0	0	506	515	0	735	39	21	
0	0	0	0	0	516	517	1	754	38	21	
1	0	0	0	0	523	517	0	758	39	21	
2	0	0	0	0	518	515	0	749	39	21	
3	0	0	0	0	507	517	0	737	39	21	
4	0	0	0	0	509	516	1	735	39	21	
5	0	0	0	0	503	514	0	741	39	21	
6	0	0	0	0	506	512	0	748	38	21	
7	0	0	0	0	508	512	0	763	38	21	
8	0	0	0	0	510	511	1	771	38	21	
9	0	0	0	0	502	511	0	789	39	21	
10	0	0	0	0	503	514	0	786	39	21	
11	0	0	0	0	515	513	0	781	39	21	
12	0	0	0	0	508	511	1	773	39	21	
13	0	0	0	0	514	511	0	766	39	21	
14	0	0	0	0	521	512	0	770	38	21	
15	0	0	0	0	520	512	0	769	39	21	
0	0	0	0	0	513	513	1	774	38	21	
1	0	0	0	0	506	513	0	768	39	21	
2	0	0	0	0	507	512	0	752	39	21	
3	0	0	0	0	510	512	0	743	39	21	
4	0	0	0	0	508	511	0	717	39	21	
5	0	0	0	0	512	511	0	695	39	21	
6	0	0	0	0	508	511	0	675	38	21	
7	0	0	0	0	505	514	0	668	39	21	
8	0	0	0	0	504	513	1	671	38	21	
9	0	0	0	0	505	512	0	663	39	21	
10	0	0	0	0	505	511	0	637	39	21	
11	0	0	0	0	508	511	0	626	39	21	
12	0	0	0	0	516	509	0	629	39	21	
13	0	0	0	0	511	509	0	638	39	21	
14	0	0	0	0	510	508	0	647	38	21	
15	0	0	0	0	512	510	0	655	39	21	
0	0	0	0	0	517	508	0	649	39	21	
1	0	0	0	0	521	510	0	643	39	21	
2	0	0	0	0	510	510	0	647	39	21	
3	0	0	0	0	498	509	0	668	39	21	
4	0	0	0	0	510	511	1	679	39	21	
5	0	0	0	0	506	511	0	683	38	21	
6	0	0	0	0	514	511	0	679	38	21	
7	0	0	0	0	514	513	0	681	39	21	
8	0	0	0	0	507	513	1	678	38	21	
9	0	0	0	0	507	511	0	658	39	21	
10	0	0	0	0	512	510	0	641	39	21	
11	0	0	0	0	510	512	0	648	39	21	
12	0	0	0	0	509	512	1	638	39	21	
13	0	0	0	0	508	511	0	630	39	21	
14	0	0	0	0	513	510	0	624	38	21	
15	0	0	0	0	508	511	0	613	39	21	
0	0	0	0	0	511	514	1	602	38	21	
1	0	0	0	0	511	512	0	600	39	21	
2	0	0	0	0	513	511	0	610	39	21	
3	0	0	0	0	508	512	0	619	39	21	
4	0	0	0	0	510	512	1	628	39	21	
5	0	0	0	0	509	511	0	635	39	21	
6	0	0	0	0	509	512	0	638	38	21	
7	0	0	0	0	505	512	0	642	39	21	
8	0	0	0	0	508	514	1	644	39	21	
9	0	0	0	0	506	510	0	645	39	21	
10	0	0	0	0	504	510	0	644	39	21	
11	0	0	0	0	506	512	0	648	39	21	
12	0	0	0	0	508	510	0	662	39	21	
13	0	0	0	0	510	511	0	679	39	21	
14	0	0	0	0	515	510	0	687	38	21	
15	0	0	0	0	510	511	0	691	38	21	
0	0	0	0	0	510	511	0	696	39	21	
1	0	0	0	0	504	510	0	691	39	21	
2	0	0	0	0	513	511	0	679	39	21	
3	0	0	0	0	513	513	0	669	39	21	
4	0	0	0	0	510	512	0	649	39	21	
5	0	0	0	0	508	512	0	648	39	21	
6	0	0	0	0	510	513	0	654	38	21	
7	0	0	0	0	509	514	0	665	39	21	
8	0	0	0	0	513	514	1	674	38	21	
9	0	0	0	0	508	513	0	681	39	21	
10	0	0	0	0	508	512	0	671	39	21	
11	0	0	0	0	509	513	0	664	39	21	
12	0	0	0	0	509	511	0	661	38	21	
13	0	0	0	0	510	509	0	637	38	21	
14	0	0	0	0	512	508	0	603	38	21	
15	0	0	0	0	505	509	0	589	39	21	
0	0	0	0	0	514	511	0	572	38	21	
1	0	0	0	0	514	508	0	566	39	21	
2	0	0	0	0	518	507	0	564	39	21	
3	0	0	0	0	508	508	0	568	39	21	
4	0	0	0	0	512	509	1	572	39	21	
5	0	0	0	0	512	508	0	577	39	21	
6	0	0	0	0	510	510	0	569	38	21	
7	0	0	0	0	506	511	0	563	39	21	
8	0	0	0	0	504	510	0	542	38	21	
9	0	0	0	0	508	508	0	518	39	21	
10	0	0	0	0	500	508	0	506	39	21	
11	0	0	0	0	504	508	0	493	39	21	
12	0	0	0	0	507	509	0	487	39	21	
13	0	0	0	0	507	509	0	476	39	21	
14	0	0	0	0	513	510	0	467	38	21	
15	0	0	0	0	514	509	0	456	39	21	
0	0	0	0	0	512	511	1	448	38	21	
1	0	0	0	0	514	510	0	435	39	21	
2	0	0	0	0	0	173	0	1017	39	21	
3	0	0	0	0	249	171	0	1017	39	21	
4	0	0	0	0	277	176	0	1019	39	21	
5	0	0	0	0	261	184	0	1017	39	21	
6	0	0	0	0	251	190	0	1017	38	21	
7	0	0	0	0	231	195	0	1017	39	21	
8	0	0	0	0	222	197	0	437	39	21	
9	0	0	0	0	220	199	0	0	39	21	
10	0	0	0	0	226	205	0	0	39	21	
11	0	0	0	0	213	204	0	0	39	21	
12	0	0	0	0	209	206	0	0	39	21	
13	0	0	0	0	932	538	0	0	39	21	
14	0	0	0	0	497	553	0	0	38	21	
15	0	0	0	0	440	544	0	0	39	21	
0	0	0	0	0	451	538	0	0	38	21	
1	0	0	0	0	468	531	0	0	39	21	
2	0	0	0	0	479	527	0	0	39	21	
3	0	0	0	0	477	524	0	0	39	21	
4	0	0	0	0	494	523	1	0	39	21	
5	0	0	0	0	502	521	0	0	39	21	
6	0	0	0	0	505	519	0	0	38	21	
7	0	0	0	0	503	519	0	0	38	21	
8	0	0	0	0	511	518	0	0	39	21	
9	0	0	0	0	508	517	0	0	39	21	
10	0	0	0	0	511	518	0	360	39	21	
11	0	0	0	0	507	516	0	615	39	21	
12	0	0	0	0	505	516	1	803	39	21	
13	0	0	0	0	508	512	0	934	39	21	
14	0	0	0	0	508	511	0	1010	38	21	
15	0	0	0	0	509	511	0	1018	39	21	
0	0	0	0	0	516	512	0	1018	39	21	
1	0	0	0	0	513	511	0	1018	39	21	
2	0	0	0	0	513	511	0	1018	39	21	
3	0	0	0	0	519	512	0	1018	39	21	
4	0	0	0	0	514	512	0	1019	39	21	
5	0	0	0	0	511	511	0	1018	39	21	
6	0	0	0	0	512	512	0	1018	38	21	
7	0	0	0	0	517	512	0	1018	39	21	
8	0	0	0	0	511	513	1	1019	38	21	
9	0	0	0	0	504	512	0	1018	39	21	
10	0	0	0	0	507	513	0	1018	39	21	
11	0	0	0	0	502	513	0	1018	39	21	
12	0	0	0	0	506	514	0	1019	39	21	
13	0	0	0	0	509	512	0	1018	39	21	
14	0	0	0	0	510	511	0	1018	38	21	
15	0	0	0	0	511	511	0	1018	39	21	
0	0	0	0	0	511	511	0	1019	39	21	
1	0	0	0	0	511	511	0	1018	39	21	
2	0	0	0	0	513	512	0	1018	39	21	
3	0	0	0	0	511	514	0	1018	39	21	
4	0	0	0	0	514	514	0	1018	39	21	
5	0	0	0	0	513	516	0	1018	39	21	
6	0	0	0	0	512	515	0	1018	38	21	
7	0	0	0	0	515	514	0	1018	39	21	
8	0	0	0	0	507	512	0	1018	39	21	
9	0	0	0	0	502	514	0	1018	39	21	
10	0	0	0	0	508	515	0	1018	39	21	
11	0	0	0	0	504	516	0	1018	39	21	
12	0	0	0	0	512	515	0	1018	38	21	
13	0	0	0	0	509	516	0	1018	39	21	
14	0	0	0	0	502	513	0	1018	38	21	
15	0	0	0	0	499	512	0	1018	39	21	
0	0	0	0	0	510	510	0	1018	39	21	
1	0	0	0	0	513	509	0	1018	39	21	
2	0	0	0	0	514	508	0	1018	39	21	
3	0	0	0	0	514	508	0	1018	39	21	
4	0	0	0	0	512	507	0	1018	39	21	
5	0	0	0	0	507	507	0	1018	39	21	
6	0	0	0	0	511	508	0	1018	38	21	
7	0	0	0	0	516	511	0	1018	38	21	
8	0	0	0	0	517	512	0	1018	38	21	
9	0	0	0	0	509	511	0	1018	39	21	
10	0	0	0	0	508	511	0	1018	39	21	
11	0	0	0	0	510	515	0	1018	39	21	
12	0	0	0	0	510	515	0	1018	39	21	
13	0	0	0	0	506	514	0	1018	39	21	
14	0	0	0	0	508	515	0	1018	38	21	
15	0	0	0	0	506	514	0	1018	39	21	
0	0	0	0	0	512	512	0	1019	39	21	
1	0	0	0	0	508	512	0	1018	39	21	
2	0	0	0	0	515	512	0	954	39	21	
3	0	0	0	0	509	511	0	938	39	21	
4	0	0	0	0	510	512	1	925	39	21	
5	0	0	0	0	514	511	0	926	38	21	
6	0	0	0	0	513	512	0	907	38	21	
7	0	0	0	0	519	513	0	888	39	21	
8	0	0	0	0	514	512	0	871	38	21	
9	0	0	0	0	512	511	0	864	39	21	
10	0	0	0	0	502	512	0	872	39	21	
11	0	0	0	0	509	512	0	885	39	21	
12	0	0	0	0	508	511	0	885	39	21	
13	0	0	0	0	504	512	0	880	38	21	
14	0	0	0	0	513	511	0	873	38	21	
15	0	0	0	0	501	512	0	869	39	21	
0	0	0	0	0	508	512	1	855	38	21	
1	0	0	0	0	508	510	0	832	39	21	
2	0	0	0	0	510	511	0	812	39	21	
3	0	0	0	0	512	511	0	785	39	21	
4	0	0	0	0	512	510	0	778	39	21	
5	0	0	0	0	511	512	0	765	39	21	
6	0	0	0	0	514	510	0	747	38	21	
7	0	0	0	0	512	509	0	731	39	21	
8	0	0	0	0	513	511	0	728	39	21	
9	0	0	0	0	512	510	0	721	39	21	
10	0	0	0	0	515	511	0	710	39	21	
11	0	0	0	0	508	511	0	696	39	21	
12	0	0	0	0	501	509	0	684	39	21	
13	0	0	0	0	505	511	0	684	39	21	
14	0	0	0	0	519	511	0	685	38	21	
15	0	0	0	0	507	510	0	696	39	21	
0	0	0	0	0	504	508	0	712	39	21	
1	0	0	0	0	507	509	0	710	39	21	
2	0	0	0	0	513	511	0	700	39	21	
3	0	0	0	0	517	513	0	696	39	21	
4	0	0	0	0	512	512	0	689	39	21	
5	0	0	0	0	512	514	0	674	39	21	
6	0	0	0	0	513	515	0	664	38	21	
7	0	0	0	0	509	516	0	653	39	21	
8	0	0	0	0	506	517	1	641	38	21	
9	0	0	0	0	507	514	0	639	39	21	
10	0	0	0	0	513	513	0	639	39	21	
11	0	0	0	0	512	513	0	656	38	21	
12	0	0	0	0	506	512	0	657	38	21	
13	0	0	0	0	513	514	0	648	38	21	
14	0	0	0	0	500	514	0	633	38	21	
15	0	0	0	0	508	514	0	609	38	21	
0	0	0	0	0	505	513	1	576	38	21	
1	0	0	0	0	513	511	0	547	39	21	
2	0	0	0	0	507	512	0	550	39	21	
3	0	0	0	0	505	512	0	560	39	21	
4	0	0	0	0	509	511	1	583	39	21	
5	0	0	0	0	509	512	0	608	39	21	
6	0	0	0	0	517	513	0	616	38	21	
7	0	0	0	0	510	513	0	618	39	21	
8	0	0	0	0	512	514	0	625	39	21	
9	0	0	0	0	519	514	0	637	39	21	
10	0	0	0	0	514	515	0	657	39	21	
11	0	0	0	0	514	514	0	680	39	21	
12	0	0	0	0	500	514	0	691	39	21	
13	0	0	0	0	502	515	0	688	39	21	
14	0	0	0	0	504	514	0	691	38	21	
15	0	0	0	0	508	514	0	693	39	21	
0	0	0	0	0	510	512	0	686	39	21	
1	0	0	0	0	515	513	0	670	39	21	
2	0	0	0	0	511	513	0	659	39	21	
3	0	0	0	0	511	513	0	649	39	21	
4	0	0	0	0	513	511	0	645	39	21	
5	0	0	0	0	518	512	0	653	39	21	
6	0	0	0	0	513	512	0	650	38	21	
7	0	0	0	0	513	511	0	652	39	21	
8	0	0	0	0	512	510	0	664	39	21	
9	0	0	0	0	505	508	0	674	39	21	
10	0	0	0	0	508	510	0	668	39	21	
11	0	0	0	0	519	511	0	672	38	21	
12	0	0	0	0	507	511	0	674	39	21	
13	0	0	0	0	503	511	0	675	39	21	
14	0	0	0	0	511	514	0	679	38	21	
15	0	0	0	0	509	513	0	679	39	21	
0	0	0	0	0	512	512	0	666	39	21	
1	0	0	0	0	504	510	0	670	39	21	
2	0	0	0	0	501	511	0	691	39	21	
3	0	0	0	0	510	509	0	704	39	21	
4	0	0	0	0	505	510	0	712	39	21	
5	0	0	0	0	514	510	0	711	39	21	
6	0	0	0	0	516	510	0	700	38	21	
7	0	0	0	0	510	512	0	697	38	21	
8	0	0	0	0	507	509	0	704	39	21	
9	0	0	0	0	512	508	0	698	39	21	
10	0	0	0	0	513	509	0	693	39	21	
11	0	0	0	0	511	511	0	695	38	21	
12	0	0	0	0	509	509	0	700	39	21	
13	0	0	0	0	506	512	0	697	39	21	
14	0	0	0	0	505	511	0	690	38	21	
15	0	0	0	0	509	513	0	687	39	21	
0	0	0	0	0	506	511	0	686	39	21	
1	0	0	0	0	504	512	0	668	39	21	
2	0	0	0	0	509	511	0	642	39	21	
3	0	0	0	0	519	511	0	624	39	21	
4	0	0	0	0	511	511	1	595	39	21	
5	0	0	0	0	509	511	0	573	39	21	
6	0	0	0	0	506	509	0	559	38	21	
7	0	0	0	0	509	510	0	561	39	21	
8	0	0	0	0	511	511	0	560	38	21	
9	0	0	0	0	515	510	0	554	39	21	
10	0	0	0	0	513	513	0	543	39	21	
11	0	0	0	0	507	512	0	552	38	21	
12	0	0	0	0	518	512	1	551	39	21	
13	0	0	0	0	516	511	0	539	39	21	
14	0	0	0	0	509	511	0	537	38	21	
15	0	0	0	0	510	511	0	531	39	21	
0	0	0	0	0	510	512	1	529	38	21	
1	0	0	0	0	508	510	0	525	39	21	
2	0	0	0	0	504	510	0	528	39	21	
3	0	0	0	0	508	512	0	526	39	21	
4	0	0	0	0	504	511	1	516	39	21	
5	0	0	0	0	505	509	0	504	39	21	
6	0	0	0	0	511	510	0	503	38	21	
7	0	0	0	0	514	514	0	503	39	21	
8	0	0	0	0	521	512	0	508	39	21	
9	0	0	0	0	507	512	0	520	39	21	
10	0	0	0	0	517	513	0	530	39	21	
11	0	0	0	0	509	513	0	543	39	21	
12	0	0	0	0	513	511	0	552	39	21	
13	0	0	0	0	512	510	0	559	39	21	
14	0	0	0	0	508	510	0	577	38	21	
15	0	0	0	0	513	512	0	593	39	21	
0	0	0	0	0	503	511	0	601	39	21	
1	0	0	0	0	505	509	0	606	39	21	
2	0	0	0	0	508	512	0	598	39	21	
3	0	0	0	0	505	513	0	597	39	21	
4	0	0	0	0	507	512	0	589	39	21	
5	0	0	0	0	499	511	0	585	39	21	
6	0	0	0	0	511	510	0	582	38	21	
7	0	0	0	0	514	511	0	565	39	21	
8	0	0	0	0	518	509	0	556	39	21	
9	0	0	0	0	513	510	0	538	39	21	
10	0	0	0	0	513	512	0	519	39	21	
11	0	0	0	0	511	512	0	511	39	21	
12	0	0	0	0	519	512	1	501	39	21	
13	0	0	0	0	514	511	0	512	39	21	
14	0	0	0	0	507	510	0	541	38	21	
15	0	0	0	0	508	510	0	562	38	21	
0	0	0	0	0	508	511	0	569	39	21	
1	0	0	0	0	504	511	0	558	39	21	
2	0	0	0	0	507	510	0	542	39	21	
3	0	0	0	0	510	510	0	552	39	21	
4	0	0	0	0	504	512	1	556	39	21	
5	0	0	0	0	511	512	0	560	39	21	
6	0	0	0	0	507	514	0	566	38	21	
7	0	0	0	0	512	515	0	559	39	21	
8	0	0	0	0	512	517	0	542	38	21	
9	0	0	0	0	511	516	0	528	39	21	
10	0	0	0	0	514	515	0	512	39	21	
11	0	0	0	0	507	516	0	504	39	21	
12	0	0	0	0	509	514	0	503	39	21	
13	0	0	0	0	508	514	0	515	39	21	
14	0	0	0	0	505	514	0	541	38	21	
15	0	0	0	0	515	513	0	550	39	21	
0	0	0	0	0	517	513	1	555	38	21	
1	0	0	0	0	507	513	0	572	39	21	
2	0	0	0	0	506	512	0	601	39	21	
3	0	0	0	0	502	512	0	614	39	21	
4	0	0	0	0	508	512	0	631	39	21	
5	0	0	0	0	502	511	0	635	39	21	
6	0	0	0	0	507	511	0	628	38	21	
7	0	0	0	0	508	511	0	631	39	21	
8	0	0	0	0	515	512	1	619	38	21	
9	0	0	0	0	514	511	0	593	39	21	
10	0	0	0	0	512	511	0	570	39	21	
11	0	0	0	0	513	513	0	558	39	21	
12	0	0	0	0	510	513	0	544	39	21	
13	0	0	0	0	514	513	0	540	39	21	
14	0	0	0	0	513	513	0	530	38	21	
15	0	0	0	0	511	514	0	531	39	21	
0	0	0	0	0	513	514	0	523	39	21	
1	0	0	0	0	506	513	0	509	39	21	
2	0	0	0	0	0	172	0	1018	39	21	
3	0	0	0	0	263	174	0	1017	39	21	
4	0	0	0	0	267	181	0	1018	39	21	
5	0	0	0	0	252	191	0	1017	39	21	
6	0	0	0	0	249	195	0	1018	38	21	
7	0	0	0	0	242	200	0	1017	38	21	
8	0	0	0	0	227	202	0	288	38	21	
9	0	0	0	0	225	204	0	0	39	21	
10	0	0	0	0	226	207	0	0	39	21	
11	0	0	0	0	219	209	0	0	39	21	
12	0	0	0	0	927	540	0	0	39	21	
13	0	0	0	0	504	556	0	0	39	21	
14	0	0	0	0	439	546	0	0	38	21	
15	0	0	0	0	459	540	0	0	39	21	
0	0	0	0	0	469	532	0	0	38	21	
1	0	0	0	0	479	527	0	0	39	21	
2	0	0	0	0	481	524	0	0	39	21	
3	0	0	0	0	489	521	0	0	39	21	
4	0	0	0	0	490	519	0	0	39	21	
5	0	0	0	0	496	517	0	0	38	21	
6	0	0	0	0	500	516	0	0	38	21	
7	0	0	0	0	506	514	0	0	38	21	
8	0	0	0	0	506	513	0	0	39	21	
9	0	0	0	0	512	512	0	322	39	21	
10	0	0	0	0	511	513	0	572	39	21	
11	0	0	0	0	513	514	0	759	39	21	
12	0	0	0	0	508	513	0	904	39	21	
13	0	0	0	0	515	512	0	1003	39	21	
14	0	0	0	0	515	511	0	1018	38	21	
15	0	0	0	0	512	511	0	1018	39	21	
0	0	0	0	0	512	512	0	1019	38	21	
1	0	0	0	0	509	511	0	1018	39	21	
2	0	0	0	0	513	514	0	1018	39	21	
3	0	0	0	0	511	515	0	1018	39	21	
4	0	0	0	0	507	514	0	1019	39	21	
5	0	0	0	0	513	512	0	1018	39	21	
6	0	0	0	0	513	512	0	1018	38	21	
7	0	0	0	0	513	513	0	1018	39	21	
8	0	0	0	0	505	511	0	1018	38	21	
9	0	0	0	0	515	511	0	1018	39	21	
10	0	0	0	0	512	512	0	1018	39	21	
11	0	0	0	0	511	510	0	1018	39	21	
12	0	0	0	0	513	508	0	1018	39	21	
13	0	0	0	0	505	508	0	1018	39	21	
14	0	0	0	0	505	508	0	1018	38	21	
15	0	0	0	0	515	509	0	1018	39	21	
0	0	0	0	0	513	509	0	1019	39	21	
1	0	0	0	0	513	510	0	1018	39	21	
2	0	0	0	0	516	513	0	1018	39	21	
3	0	0	0	0	517	512	0	1018	39	21	
4	0	0	0	0	510	512	0	1019	39	21	
5	0	0	0	0	511	512	0	1018	39	21	
6	0	0	0	0	512	513	0	1018	38	21	
7	0	0	0	0	507	512	0	1018	38	21	
8	0	0	0	0	498	512	0	1019	39	21	
9	0	0	0	0	500	510	0	1018	39	21	
10	0	0	0	0	509	510	0	1018	39	21	
11	0	0	0	0	514	510	0	1018	39	21	
12	0	0	0	0	506	510	0	1018	39	21	
13	0	0	0	0	511	510	0	1018	39	21	
14	0	0	0	0	508	512	0	1018	38	21	
15	0	0	0	0	516	513	0	991	39	21	
0	0	0	0	0	514	515	0	977	39	21	
1	0	0	0	0	511	515	0	974	39	21	
2	0	0	0	0	513	513	0	987	39	21	
3	0	0	0	0	518	514	0	994	39	21	
4	0	0	0	0	504	515	0	991	39	21	
5	0	0	0	0	511	512	0	986	39	21	
6	0	0	0	0	505	514	0	989	38	21	
7	0	0	0	0	505	514	0	988	39	21	
8	0	0	0	0	506	514	0	986	39	21	
9	0	0	0	0	505	513	0	990	39	21	
10	0	0	0	0	512	514	0	989	39	21	
11	0	0	0	0	506	515	0	989	39	21	
12	0	0	0	0	511	513	1	976	39	21	
13	0	0	0	0	505	513	0	965	39	21	
14	0	0	0	0	519	514	0	955	38	21	
15	0	0	0	0	508	514	0	943	39	21	
0	0	0	0	0	510	513	0	940	39	21	
1	0	0	0	0	518	514	0	936	39	21	
2	0	0	0	0	510	513	0	922	39	21	
3	0	0	0	0	511	514	0	915	39	21	
4	0	0	0	0	515	514	1	920	39	21	
5	0	0	0	0	503	515	0	923	39	21	
6	0	0	0	0	512	515	0	915	38	21	
7	0	0	0	0	516	513	0	894	38	21	
8	0	0	0	0	505	513	1	873	38	21	
9	0	0	0	0	508	512	0	849	39	21	
10	0	0	0	0	509	512	0	819	39	21	
11	0	0	0	0	504	512	0	784	39	21	
12	0	0	0	0	504	514	1	774	39	21	
13	0	0	0	0	517	512	0	775	39	21	
14	0	0	0	0	512	510	0	772	38	21	
15	0	0	0	0	512	512	0	761	38	21	
0	0	0	0	0	505	513	1	736	38	21	
1	0	0	0	0	515	512	0	738	39	21	
2	0	0	0	0	515	510	0	745	39	21	
3	0	0	0	0	520	511	0	760	39	21	
4	0	0	0	0	516	512	1	777	39	21	
5	0	0	0	0	509	512	0	795	39	21	
6	0	0	0	0	506	513	0	826	38	21	
7	0	0	0	0	503	514	0	837	39	21	
8	0	0	0	0	509	514	1	836	38	21	
9	0	0	0	0	506	513	0	837	39	21	
10	0	0	0	0	516	514	0	829	39	21	
11	0	0	0	0	510	516	0	814	39	21	
12	0	0	0	0	504	515	0	785	39	21	
13	0	0	0	0	509	514	0	759	39	21	
14	0	0	0	0	507	513	0	734	38	21	
15	0	0	0	0	515	511	0	728	38	21	
0	0	0	0	0	515	511	0	718	39	21	
1	0	0	0	0	509	511	0	706	39	21	
2	0	0	0	0	513	511	0	696	39	21	
3	0	0	0	0	513	512	0	681	39	21	
4	0	0	0	0	509	510	0	671	39	21	
5	0	0	0	0	502	511	0	673	38	21	
6	0	0	0	0	504	511	0	669	38	21	
7	0	0	0	0	504	511	0	661	38	21	
8	0	0	0	0	507	510	1	659	38	21	
9	0	0	0	0	511	508	0	671	39	21	
10	0	0	0	0	512	508	0	686	39	21	
11	0	0	0	0	513	510	0	697	39	21	
12	0	0	0	0	504	510	1	701	39	21	
13	0	0	0	0	511	510	0	704	39	21	
14	0	0	0	0	510	511	0	703	38	21	
15	0	0	0	0	514	512	0	700	39	21	
0	0	0	0	0	511	514	1	708	38	21	
1	0	0	0	0	512	512	0	719	39	21	
2	0	0	0	0	517	513	0	726	39	21	
3	0	0	0	0	510	512	0	722	39	21	
4	0	0	0	0	512	511	1	705	39	21	
5	0	0	0	0	514	511	0	705	39	21	
6	0	0	0	0	504	511	0	704	38	21	
7	0	0	0	0	505	512	0	705	38	21	
8	0	0	0	0	511	513	1	709	38	21	
9	0	0	0	0	512	511	0	728	39	21	
10	0	0	0	0	509	510	0	748	39	21	
11	0	0	0	0	500	509	0	759	39	21	
12	0	0	0	0	505	510	0	760	39	21	
13	0	0	0	0	513	510	0	760	39	21	
14	0	0	0	0	510	512	0	744	38	21	
15	0	0	0	0	509	513	0	733	38	21	
0	0	0	0	0	508	514	1	719	38	21	
1	0	0	0	0	507	511	0	711	39	21	
2	0	0	0	0	517	511	0	711	39	21	
3	0	0	0	0	504	513	0	719	39	21	
4	0	0	0	0	514	514	0	733	39	21	
5	0	0	0	0	515	512	0	740	39	21	
6	0	0	0	0	512	512	0	736	38	21	
7	0	0	0	0	512	511	0	722	39	21	
8	0	0	0	0	505	510	0	718	39	21	
9	0	0	0	0	505	510	0	714	39	21	
10	0	0	0	0	505	511	0	695	39	21	
11	0	0	0	0	511	513	0	668	39	21	
12	0	0	0	0	508	512	0	646	39	21	
13	0	0	0	0	512	512	0	630	39	21	
14	0	0	0	0	515	512	0	620	38	21	
15	0	0	0	0	507	513	0	615	38	21	
0	0	0	0	0	512	512	0	608	39	21	
1	0	0	0	0	512	511	0	615	39	21	
2	0	0	0	0	511	512	0	613	39	21	
3	0	0	0	0	513	511	0	611	39	21	
4	0	0	0	0	514	511	0	601	39	21	
5	0	0	0	0	505	512	0	594	39	21	
6	0	0	0	0	508	512	0	611	38	21	
7	0	0	0	0	509	512	0	632	39	21	
8	0	0	0	0	508	511	0	648	38	21	
9	0	0	0	0	511	510	0	655	39	21	
10	0	0	0	0	509	511	0	665	39	21	
11	0	0	0	0	507	512	0	674	39	21	
12	0	0	0	0	507	513	1	683	39	21	
13	0	0	0	0	508	511	0	674	39	21	
14	0	0	0	0	511	511	0	653	38	21	
15	0	0	0	0	508	510	0	677	38	21	
0	0	0	0	0	508	510	0	674	39	21	
1	0	0	0	0	513	510	0	676	39	21	
2	0	0	0	0	512	512	0	674	39	21	
3	0	0	0	0	512	512	0	673	39	21	
4	0	0	0	0	513	511	1	663	39	21	
5	0	0	0	0	510	511	0	652	39	21	
6	0	0	0	0	512	511	0	638	38	21	
7	0	0	0	0	512	513	0	645	38	21	
8	0	0	0	0	505	514	0	624	38	21	
9	0	0	0	0	509	513	0	608	39	21	
10	0	0	0	0	508	514	0	591	39	21	
11	0	0	0	0	504	513	0	577	39	21	
12	0	0	0	0	507	513	0	566	39	21	
13	0	0	0	0	507	512	0	573	39	21	
14	0	0	0	0	511	513	0	568	38	21	
15	0	0	0	0	510	512	0	563	39	21	
0	0	0	0	0	509	511	0	563	39	21	
1	0	0	0	0	509	510	0	558	39	21	
2	0	0	0	0	509	510	0	549	39	21	
3	0	0	0	0	513	510	0	549	39	21	
4	0	0	0	0	513	510	0	554	39	21	
5	0	0	0	0	516	511	0	569	39	21	
6	0	0	0	0	517	511	0	587	38	21	
7	0	0	0	0	509	513	0	596	39	21	
8	0	0	0	0	510	514	0	594	38	21	
9	0	0	0	0	509	513	0	608	39	21	
10	0	0	0	0	507	513	0	620	39	21	
11	0	0	0	0	505	515	0	633	39	21	
12	0	0	0	0	510	515	1	631	39	21	
13	0	0	0	0	507	514	0	627	38	21	
14	0	0	0	0	511	515	0	605	38	21	
15	0	0	0	0	504	512	0	592	38	21	
0	0	0	0	0	502	512	0	579	39	21	
1	0	0	0	0	503	511	0	555	39	21	
2	0	0	0	0	516	511	0	547	39	21	
3	0	0	0	0	511	513	0	553	39	21	
4	0	0	0	0	511	512	0	559	39	21	
5	0	0	0	0	519	512	0	559	39	21	
6	0	0	0	0	514	513	0	569	38	21	
7	0	0	0	0	511	514	0	595	39	21	
8	0	0	0	0	511	514	1	615	38	21	
9	0	0	0	0	510	512	0	642	39	21	
10	0	0	0	0	508	511	0	634	39	21	
11	0	0	0	0	507	511	0	636	39	21	
12	0	0	0	0	510	511	0	625	39	21	
13	0	0	0	0	506	510	0	615	39	21	
14	0	0	0	0	505	511	0	591	38	21	
15	0	0	0	0	513	512	0	582	39	21	
0	0	0	0	0	511	511	1	583	38	21	
1	0	0	0	0	502	509	0	583	39	21	
2	0	0	0	0	518	508	0	583	39	21	
3	0	0	0	0	508	511	0	597	39	21	
4	0	0	0	0	506	512	0	615	39	21	
5	0	0	0	0	515	509	0	610	39	21	
6	0	0	0	0	518	509	0	598	38	21	
7	0	0	0	0	503	512	0	592	39	21	
8	0	0	0	0	514	509	0	616	39	21	
9	0	0	0	0	515	508	0	643	39	21	
10	0	0	0	0	508	510	0	664	39	21	
11	0	0	0	0	503	512	0	676	39	21	
12	0	0	0	0	506	512	1	667	39	21	
13	0	0	0	0	506	510	0	644	39	21	
14	0	0	0	0	504	510	0	624	38	21	
15	0	0	0	0	511	510	0	611	39	21	
0	0	0	0	0	512	511	0	604	39	21	
1	0	0	0	0	511	509	0	601	39	21	
2	0	0	0	0	508	509	0	599	39	21	
3	0	0	0	0	508	511	0	606	39	21	
4	0	0	0	0	516	508	1	612	39	21	
5	0	0	0	0	507	507	0	606	39	21	
6	0	0	0	0	508	508	0	584	38	21	
7	0	0	0	0	510	509	0	582	38	21	
8	0	0	0	0	514	509	0	573	38	21	
9	0	0	0	0	513	511	0	577	39	21	
10	0	0	0	0	510	513	0	584	39	21	
11	0	0	0	0	505	513	0	597	39	21	
12	0	0	0	0	504	513	0	609	39	21	
13	0	0	0	0	510	513	0	630	39	21	
14	0	0	0	0	514	513	0	634	38	21	
15	0	0	0	0	507	515	0	627	39	21	
0	0	0	0	0	505	515	1	608	38	21	
1	0	0	0	0	506	513	0	577	39	21	
2	0	0	0	0	0	175	0	1017	39	21	
3	0	0	0	0	248	172	0	1017	39	21	
4	0	0	0	0	275	180	0	1019	39	21	
5	0	0	0	0	266	186	0	1017	39	21	
6	0	0	0	0	252	190	0	1018	38	21	
7	0	0	0	0	236	196	0	1017	38	21	
8	0	0	0	0	233	199	0	483	39	21	
9	0	0	0	0	228	202	0	0	38	21	
10	0	0	0	0	214	204	0	0	39	21	
11	0	0	0	0	211	206	0	0	39	21	
12	0	0	0	0	208	206	0	0	39	21	
13	0	0	0	0	920	539	0	0	39	21	
14	0	0	0	0	499	555	0	0	38	21	
15	0	0	0	0	435	548	0	0	38	21	
0	0	0	0	0	451	541	0	0	38	21	
1	0	0	0	0	465	535	0	0	39	21	
2	0	0	0	0	487	529	0	0	39	21	
3	0	0	0	0	489	525	0	0	39	21	
4	0	0	0	0	494	522	0	0	39	21	
5	0	0	0	0	500	520	0	0	39	21	
6	0	0	0	0	498	519	0	0	38	21	
7	0	0	0	0	507	519	0	0	39	21	
8	0	0	0	0	504	517	0	0	38	21	
9	0	0	0	0	507	514	0	0	39	21	
10	0	0	0	0	505	515	0	387	39	21	
11	0	0	0	0	510	515	0	658	39	21	
12	0	0	0	0	515	512	0	846	39	21	
13	0	0	0	0	506	512	0	968	39	21	
14	0	0	0	0	505	512	0	1018	38	21	
15	0	0	0	0	513	513	0	1018	38	21	
0	0	0	0	0	511	513	0	1019	38	21	
1	0	0	0	0	509	509	0	1018	39	21	
2	0	0	0	0	508	510	0	1018	39	21	
3	0	0	0	0	509	512	0	1018	39	21	
4	0	0	0	0	517	510	0	1018	39	21	
5	0	0	0	0	518	511	0	1018	39	21	
6	0	0	0	0	510	511	0	1018	38	21	
7	0	0	0	0	510	512	0	1018	38	21	
8	0	0	0	0	513	512	0	1019	39	21	
9	0	0	0	0	516	513	0	1018	39	21	
10	0	0	0	0	511	513	0	1018	39	21	
11	0	0	0	0	515	513	0	1018	38	21	
12	0	0	0	0	509	512	0	1019	39	21	
13	0	0	0	0	507	512	0	1018	39	21	
14	0	0	0	0	504	511	0	1018	38	21	
15	0	0	0	0	511	512	0	1018	39	21	
0	0	0	0	0	510	511	0	1018	38	21	
1	0	0	0	0	512	512	0	1018	39	21	
2	0	0	0	0	507	512	0	1018	39	21	
3	0	0	0	0	508	513	0	1018	38	21	
4	0	0	0	0	503	513	1	1019	39	21	
5	0	0	0	0	513	511	0	1018	39	21	
6	0	0	0	0	507	513	0	1018	38	21	
7	0	0	0	0	511	514	0	1018	39	21	
8	0	0	0	0	515	514	1	1019	38	21	
9	0	0	0	0	519	514	0	1018	39	21	
10	0	0	0	0	518	512	0	1018	39	21	
11	0	0	0	0	509	513	0	1018	39	21	
12	0	0	0	0	515	512	1	1019	39	21	
13	0	0	0	0	503	511	0	1018	39	21	
14	0	0	0	0	505	512	0	1018	38	21	
15	0	0	0	0	509	513	0	1018	38	21	
0	0	0	0	0	509	512	1	1019	38	21	
1	0	0	0	0	504	509	0	1018	39	21	
2	0	0	0	0	507	508	0	1018	39	21	
3	0	0	0	0	514	508	0	1018	39	21	
4	0	0	0	0	508	508	0	1019	39	21	
5	0	0	0	0	509	508	0	981	39	21	
6	0	0	0	0	517	509	0	974	38	21	
7	0	0	0	0	506	509	0	970	39	21	
8	0	0	0	0	512	508	0	960	38	21	
9	0	0	0	0	511	508	0	934	39	21	
10	0	0	0	0	515	507	0	915	39	21	
11	0	0	0	0	505	509	0	907	39	21	
12	0	0	0	0	514	510	1	903	39	21	
13	0	0	0	0	512	509	0	922	39	21	
14	0	0	0	0	505	509	0	946	38	21	
15	0	0	0	0	510	513	0	959	38	21	
0	0	0	0	0	513	511	0	965	39	21	
1	0	0	0	0	511	511	0	978	39	21	
2	0	0	0	0	512	511	0	967	39	21	
3	0	0	0	0	505	510	0	949	39	21	
4	0	0	0	0	508	508	0	937	39	21	
5	0	0	0	0	511	507	0	921	39	21	
6	0	0	0	0	512	508	0	910	38	21	
7	0	0	0	0	510	510	0	902	39	21	
8	0	0	0	0	511	508	0	891	39	21	
9	0	0	0	0	513	510	0	861	39	21	
10	0	0	0	0	512	512	0	841	39	21	
11	0	0	0	0	511	513	0	847	39	21	
12	0	0	0	0	514	510	0	855	39	21	
13	0	0	0	0	515	512	0	862	39	21	
14	0	0	0	0	513	512	0	865	38	21	
15	0	0	0	0	501	515	0	871	38	21	
0	0	0	0	0	508	513	1	856	38	21	
1	0	0	0	0	508	512	0	840	39	21	
2	0	0	0	0	512	511	0	834	39	21	
3	0	0	0	0	513	510	0	824	39	21	
4	0	0	0	0	512	510	0	813	39	21	
5	0	0	0	0	507	512	0	808	39	21	
6	0	0	0	0	503	511	0	812	38	21	
7	0	0	0	0	511	512	0	805	39	21	
8	0	0	0	0	508	512	1	793	38	21	
9	0	0	0	0	506	511	0	799	39	21	
10	0	0	0	0	511	512	0	804	39	21	
11	0	0	0	0	516	512	0	816	39	21	
12	0	0	0	0	516	511	1	809	39	21	
13	0	0	0	0	511	511	0	811	39	21	
14	0	0	0	0	512	511	0	804	38	21	
15	0	0	0	0	503	513	0	796	38	21	
0	0	0	0	0	514	512	0	790	39	21	
1	0	0	0	0	512	512	0	774	39	21	
2	0	0	0	0	511	512	0	752	39	21	
3	0	0	0	0	508	511	0	730	39	21	
4	0	0	0	0	502	509	0	702	39	21	
5	0	0	0	0	513	511	0	672	39	21	
6	0	0	0	0	501	510	0	647	38	21	
7	0	0	0	0	501	511	0	642	39	21	
8	0	0	0	0	519	511	0	635	39	21	
9	0	0	0	0	509	511	0	622	39	21	
10	0	0	0	0	516	512	0	642	39	21	
11	0	0	0	0	512	512	0	669	39	21	
12	0	0	0	0	520	511	0	680	39	21	
13	0	0	0	0	510	511	0	685	39	21	
14	0	0	0	0	506	513	0	705	38	21	
15	0	0	0	0	513	513	0	724	39	21	
0	0	0	0	0	512	515	1	739	38	21	
1	0	0	0	0	507	514	0	752	39	21	
2	0	0	0	0	511	513	0	768	39	21	
3	0	0	0	0	510	515	0	774	38	21	
4	0	0	0	0	508	514	0	785	39	21	
5	0	0	0	0	513	514	0	776	39	21	
6	0	0	0	0	505	513	0	764	38	21	
7	0	0	0	0	508	513	0	752	38	21	
8	0	0	0	0	510	513	1	736	38	21	
9	0	0	0	0	518	513	0	720	39	21	
10	0	0	0	0	505	513	0	693	39	21	
11	0	0	0	0	510	511	0	656	39	21	
12	0	0	0	0	511	512	0	635	39	21	
13	0	0	0	0	516	513	0	636	39	21	
14	0	0	0	0	510	514	0	661	38	21	
15	0	0	0	0	508	514	0	688	39	21	
0	0	0	0	0	511	512	0	698	38	21	
1	0	0	0	0	506	510	0	700	39	21	
2	0	0	0	0	504	512	0	694	39	21	
3	0	0	0	0	499	512	0	691	39	21	
4	0	0	0	0	515	511	0	681	39	21	
5	0	0	0	0	506	513	0	673	38	21	
6	0	0	0	0	510	513	0	665	38	21	
7	0	0	0	0	507	513	0	666	38	21	
8	0	0	0	0	509	511	0	657	39	21	
9	0	0	0	0	511	509	0	654	39	21	
10	0	0	0	0	511	511	0	650	39	21	
11	0	0	0	0	515	512	0	644	39	21	
12	0	0	0	0	507	513	1	631	39	21	
13	0	0	0	0	514	512	0	629	39	21	
14	0	0	0	0	519	510	0	631	38	21	
15	0	0	0	0	510	510	0	644	39	21	
0	0	0	0	0	507	510	1	653	38	21	
1	0	0	0	0	510	509	0	660	39	21	
2	0	0	0	0	506	511	0	664	39	21	
3	0	0	0	0	512	511	0	658	39	21	
4	0	0	0	0	511	511	1	659	39	21	
5	0	0	0	0	515	511	0	659	39	21	
6	0	0	0	0	504	511	0	636	38	21	
7	0	0	0	0	503	512	0	617	39	21	
8	0	0	0	0	504	511	0	601	38	21	
9	0	0	0	0	511	511	0	584	39	21	
10	0	0	0	0	514	513	0	576	39	21	
11	0	0	0	0	508	514	0	580	39	21	
12	0	0	0	0	510	513	0	586	39	21	
13	0	0	0	0	512	512	0	599	39	21	
14	0	0	0	0	515	513	0	614	38	21	
15	0	0	0	0	511	513	0	638	39	21	
0	0	0	0	0	510	514	0	652	39	21	
1	0	0	0	0	506	514	0	665	39	21	
2	0	0	0	0	507	513	0	673	39	21	
3	0	0	0	0	509	514	0	677	39	21	
4	0	0	0	0	511	513	0	669	39	21	
5	0	0	0	0	504	511	0	649	39	21	
6	0	0	0	0	512	512	0	650	38	21	
7	0	0	0	0	507	513	0	625	39	21	
8	0	0	0	0	510	515	1	590	38	21	
9	0	0	0	0	504	511	0	579	39	21	
10	0	0	0	0	511	510	0	571	39	21	
11	0	0	0	0	512	512	0	570	39	21	
12	0	0	0	0	516	512	1	571	39	21	
13	0	0	0	0	510	512	0	573	39	21	
14	0	0	0	0	514	511	0	582	38	21	
15	0	0	0	0	507	514	0	600	39	21	
0	0	0	0	0	513	515	0	605	38	21	
1	0	0	0	0	519	513	0	599	39	21	
2	0	0	0	0	517	511	0	593	39	21	
3	0	0	0	0	508	512	0	587	38	21	
4	0	0	0	0	516	513	1	573	39	21	
5	0	0	0	0	510	512	0	566	39	21	
6	0	0	0	0	507	514	0	569	38	21	
7	0	0	0	0	504	514	0	570	38	21	
8	0	0	0	0	505	513	1	575	38	21	
9	0	0	0	0	507	513	0	578	39	21	
10	0	0	0	0	502	511	0	562	39	21	
11	0	0	0	0	514	511	0	558	38	21	
12	0	0	0	0	511	511	0	563	39	21	
13	0	0	0	0	512	513	0	556	39	21	
14	0	0	0	0	515	513	0	541	38	21	
15	0	0	0	0	509	516	0	527	38	21	
0	0	0	0	0	510	516	0	523	39	21	
1	0	0	0	0	513	517	0	537	39	21	
2	0	0	0	0	510	514	0	559	39	21	
3	0	0	0	0	507	513	0	573	39	21	
4	0	0	0	0	504	511	0	572	39	21	
5	0	0	0	0	514	512	0	572	39	21	
6	0	0	0	0	516	512	0	575	38	21	
7	0	0	0	0	501	513	0	584	39	21	
8	0	0	0	0	507	512	0	577	39	21	
9	0	0	0	0	513	514	0	573	39	21	
10	0	0	0	0	512	512	0	573	39	21	
11	0	0	0	0	512	512	0	579	39	21	
12	0	0	0	0	508	512	0	564	39	21	
13	0	0	0	0	510	514	0	559	39	21	
14	0	0	0	0	510	514	0	561	38	21	
15	0	0	0	0	513	515	0	566	39	21	
0	0	0	0	0	513	515	0	563	38	21	
1	0	0	0	0	507	515	0	564	39	21	
2	0	0	0	0	509	514	0	569	39	21	
3	0	0	0	0	511	512	0	572	39	21	
4	0	0	0	0	510	508	0	580	39	21	
5	0	0	0	0	507	511	0	578	38	21	
6	0	0	0	0	507	512	0	586	38	21	
7	0	0	0	0	510	511	0	575	38	21	
8	0	0	0	0	513	512	0	571	38	21	
9	0	0	0	0	516	511	0	568	39	21	
10	0	0	0	0	511	511	0	574	39	21	
11	0	0	0	0	507	510	0	567	39	21	
12	0	0	0	0	511	510	0	558	39	21	
13	0	0	0	0	515	510	0	548	39	21	
14	0	0	0	0	510	510	0	535	38	21	
15	0	0	0	0	509	511	0	521	39	21	
0	0	0	0	0	509	509	0	502	39	21	
1	0	0	0	0	513	507	0	491	39	21	
2	0	0	0	0	517	507	0	492	39	21	
3	0	0	0	0	513	506	0	484	38	21	
4	0	0	0	0	509	509	0	473	39	21	
5	0	0	0	0	507	508	0	471	39	21	
6	0	0	0	0	510	508	0	472	38	21	
7	0	0	0	0	508	510	0	487	39	21	
8	0	0	0	0	510	511	0	505	39	21	
9	0	0	0	0	507	511	0	511	39	21	
10	0	0	0	0	503	509	0	505	39	21	
11	0	0	0	0	512	512	0	501	39	21	
12	0	0	0	0	512	511	0	505	39	21	
13	0	0	0	0	512	511	0	526	39	21	
14	0	0	0	0	514	511	0	540	38	21	
15	0	0	0	0	509	511	0	540	39	21	
0	0	0	0	0	512	510	0	552	39	21	
1	0	0	0	0	0	199	0	1017	39	21	
2	0	0	0	0	206	170	0	1017	39	21	
3	0	0	0	0	275	179	0	1017	38	21	
4	0	0	0	0	271	185	0	1017	39	21	
5	0	0	0	0	245	193	0	1017	38	21	
6	0	0	0	0	235	197	0	1017	38	21	
7	0	0	0	0	228	202	0	1016	38	21	
8	0	0	0	0	221	202	0	0	39	21	
9	0	0	0	0	216	205	0	0	39	21	
10	0	0	0	0	215	206	0	0	39	21	
11	0	0	0	0	206	207	0	0	38	21	
12	0	0	0	0	936	542	0	0	39	21	
13	0	0	0	0	509	556	0	0	38	21	
14	0	0	0	0	444	546	0	0	38	21	
15	0	0	0	0	452	538	0	0	38	21	
0	0	0	0	0	471	530	0	0	39	21	
1	0	0	0	0	477	524	0	0	39	21	
2	0	0	0	0	490	522	0	0	39	21	
3	0	0	0	0	498	519	0	0	39	21	
4	0	0	0	0	498	518	0	0	39	21	
5	0	0	0	0	503	518	0	0	39	21	
6	0	0	0	0	507	516	0	0	38	21	
7	0	0	0	0	510	516	0	0	39	21	
8	0	0	0	0	495	515	0	0	39	21	
9	0	0	0	0	505	514	0	273	39	21	
10	0	0	0	0	511	516	0	533	39	21	
11	0	0	0	0	504	515	0	715	39	21	
12	0	0	0	0	514	514	0	851	39	21	
13	0	0	0	0	513	513	0	942	39	21	
14	0	0	0	0	512	512	0	997	38	21	
15	0	0	0	0	511	512	0	1018	38	21	
0	0	0	0	0	517	512	1	1019	38	21	
1	0	0	0	0	514	512	0	1018	39	21	
2	0	0	0	0	514	513	0	1018	39	21	
3	0	0	0	0	508	512	0	1018	39	21	
4	0	0	0	0	513	513	0	1019	39	21	
5	0	0	0	0	511	511	0	1018	39	21	
6	0	0	0	0	514	511	0	1018	38	21	
7	0	0	0	0	509	511	0	1018	38	21	
8	0	0	0	0	510	511	1	1019	38	21	
9	0	0	0	0	508	511	0	1018	39	21	
10	0	0	0	0	509	512	0	1018	39	21	
11	0	0	0	0	505	513	0	1018	39	21	
12	0	0	0	0	509	514	0	1019	39	21	
13	0	0	0	0	501	513	0	1018	38	21	
14	0	0	0	0	510	513	0	1018	38	21	
15	0	0	0	0	519	513	0	1018	39	21	
0	0	0	0	0	518	513	1	1019	38	21	
1	0	0	0	0	515	512	0	1018	39	21	
2	0	0	0	0	515	513	0	1018	39	21	
3	0	0	0	0	512	513	0	1018	39	21	
4	0	0	0	0	506	515	0	1018	39	21	
5	0	0	0	0	508	515	0	1018	39	21	
6	0	0	0	0	512	513	0	1018	38	21	
7	0	0	0	0	514	513	0	1018	39	21	
8	0	0	0	0	508	513	0	1018	39	21	
9	0	0	0	0	504	516	0	1018	39	21	
10	0	0	0	0	515	514	0	1018	39	21	
11	0	0	0	0	509	513	0	1018	39	21	
12	0	0	0	0	510	512	0	1019	39	21	
13	0	0	0	0	512	513	0	988	39	21	
14	0	0	0	0	510	511	0	965	38	21	
15	0	0	0	0	508	512	0	938	38	21	
0	0	0	0	0	508	511	0	920	39	21	
1	0	0	0	0	512	512	0	909	39	21	
2	0	0	0	0	517	513	0	899	39	21	
3	0	0	0	0	514	514	0	892	39	21	
4	0	0	0	0	512	517	1	881	39	21	
5	0	0	0	0	509	514	0	887	38	21	
6	0	0	0	0	505	515	0	890	38	21	
7	0	0	0	0	508	517	0	894	39	21	
8	0	0	0	0	497	514	1	895	38	21	
9	0	0	0	0	514	515	0	897	38	21	
10	0	0	0	0	510	514	0	898	39	21	
11	0	0	0	0	509	515	0	899	39	21	
12	0	0	0	0	513	514	0	890	39	21	
13	0	0	0	0	513	513	0	873	39	21	
14	0	0	0	0	513	515	0	853	38	21	
15	0	0	0	0	505	513	0	841	38	21	
0	0	0	0	0	505	512	0	831	39	21	
1	0	0	0	0	511	511	0	829	39	21	
2	0	0	0	0	514	513	0	827	39	21	
3	0	0	0	0	514	513	0	832	39	21	
4	0	0	0	0	515	513	0	838	39	21	
5	0	0	0	0	515	512	0	848	39	21	
6	0	0	0	0	511	511	0	860	38	21	
7	0	0	0	0	508	513	0	867	39	21	
8	0	0	0	0	515	514	1	873	38	21	
9	0	0	0	0	506	511	0	870	39	21	
10	0	0	0	0	510	512	0	869	39	21	
11	0	0	0	0	505	512	0	880	39	21	
12	0	0	0	0	512	510	0	885	39	21	
13	0	0	0	0	507	511	0	891	39	21	
14	0	0	0	0	500	512	0	886	38	21	
15	0	0	0	0	511	512	0	867	39	21	
0	0	0	0	0	507	512	0	837	38	21	
1	0	0	0	0	516	511	0	804	39	21	
2	0	0	0	0	506	511	0	771	39	21	
3	0	0	0	0	515	513	0	752	39	21	
4	0	0	0	0	512	513	0	752	39	21	
5	0	0	0	0	512	513	0	768	39	21	
6	0	0	0	0	510	511	0	788	38	21	
7	0	0	0	0	505	511	0	807	38	21	
8	0	0	0	0	519	511	1	807	38	21	
9	0	0	0	0	506	510	0	813	39	21	
10	0	0	0	0	508	513	0	811	39	21	
11	0	0	0	0	504	512	0	809	39	21	
12	0	0	0	0	510	513	1	813	39	21	
13	0	0	0	0	513	510	0	808	39	21	
14	0	0	0	0	506	510	0	812	38	21	
15	0	0	0	0	512	511	0	802	39	21	
0	0	0	0	0	507	512	0	792	39	21	
1	0	0	0	0	512	512	0	783	39	21	
2	0	0	0	0	505	512	0	759	39	21	
3	0	0	0	0	513	512	0	730	39	21	
4	0	0	0	0	510	513	0	710	39	21	
5	0	0	0	0	517	512	0	700	39	21	
6	0	0	0	0	513	513	0	693	38	21	
7	0	0	0	0	513	511	0	686	39	21	
8	0	0	0	0	508	510	1	695	38	21	
9	0	0	0	0	513	510	0	720	39	21	
10	0	0	0	0	510	513	0	738	39	21	
11	0	0	0	0	508	513	0	743	39	21	
12	0	0	0	0	512	513	0	740	39	21	
13	0	0	0	0	503	511	0	742	39	21	
14	0	0	0	0	511	513	0	735	38	21	
15	0	0	0	0	509	513	0	729	39	21	
0	0	0	0	0	509	515	1	715	38	21	
1	0	0	0	0	510	513	0	695	39	21	
2	0	0	0	0	509	512	0	687	39	21	
3	0	0	0	0	511	510	0	689	39	21	
4	0	0	0	0	509	509	1	694	39	21	
5	0	0	0	0	511	509	0	697	38	21	
6	0	0	0	0	512	508	0	691	38	21	
7	0	0	0	0	517	508	0	691	39	21	
8	0	0	0	0	512	509	1	713	38	21	
9	0	0	0	0	509	510	0	732	39	21	
10	0	0	0	0	508	511	0	760	39	21	
11	0	0	0	0	514	513	0	791	38	21	
12	0	0	0	0	504	514	1	814	39	21	
13	0	0	0	0	509	511	0	824	39	21	
14	0	0	0	0	511	511	0	828	38	21	
15	0	0	0	0	507	510	0	830	39	21	
0	0	0	0	0	507	512	1	817	38	21	
1	0	0	0	0	506	511	0	803	39	21	
2	0	0	0	0	508	512	0	791	39	21	
3	0	0	0	0	515	513	0	789	39	21	
4	0	0	0	0	512	513	0	784	38	21	
5	0	0	0	0	507	512	0	772	39	21	
6	0	0	0	0	504	512	0	760	38	21	
7	0	0	0	0	513	512	0	754	39	21	
8	0	0	0	0	515	513	0	747	38	21	
9	0	0	0	0	515	514	0	745	39	21	
10	0	0	0	0	511	513	0	759	39	21	
11	0	0	0	0	511	513	0	760	39	21	
12	0	0	0	0	511	512	0	760	39	21	
13	0	0	0	0	512	511	0	748	39	21	
14	0	0	0	0	508	509	0	746	38	21	
15	0	0	0	0	504	510	0	743	39	21	
0	0	0	0	0	509	511	0	721	39	21	
1	0	0	0	0	507	512	0	705	39	21	
2	0	0	0	0	503	511	0	703	39	21	
3	0	0	0	0	511	512	0	705	39	21	
4	0	0	0	0	512	510	0	707	39	21	
5	0	0	0	0	513	510	0	729	39	21	
6	0	0	0	0	509	509	0	753	38	21	
7	0	0	0	0	510	507	0	761	39	21	
8	0	0	0	0	509	508	1	758	38	21	
9	0	0	0	0	513	510	0	763	39	21	
10	0	0	0	0	518	513	0	773	39	21	
11	0	0	0	0	513	514	0	781	39	21	
12	0	0	0	0	509	515	1	799	39	21	
13	0	0	0	0	513	514	0	807	39	21	
14	0	0	0	0	503	513	0	807	38	21	
15	0	0	0	0	506	514	0	802	39	21	
0	0	0	0	0	502	514	1	796	38	21	
1	0	0	0	0	505	512	0	790	39	21	
2	0	0	0	0	508	512	0	789	39	21	
3	0	0	0	0	513	514	0	800	39	21	
4	0	0	0	0	512	512	1	801	39	21	
5	0	0	0	0	516	513	0	793	39	21	
6	0	0	0	0	516	512	0	781	38	21	
7	0	0	0	0	510	514	0	765	39	21	
8	0	0	0	0	507	511	0	748	39	21	
9	0	0	0	0	512	511	0	725	39	21	
10	0	0	0	0	505	514	0	697	39	21	
11	0	0	0	0	509	515	0	678	38	21	
12	0	0	0	0	513	513	1	664	39	21	
13	0	0	0	0	504	511	0	663	39	21	
14	0	0	0	0	510	512	0	667	38	21	
15	0	0	0	0	513	514	0	672	39	21	
0	0	0	0	0	514	516	1	684	38	21	
1	0	0	0	0	506	514	0	690	39	21	
2	0	0	0	0	511	515	0	699	39	21	
3	0	0	0	0	512	514	0	695	39	21	
4	0	0	0	0	511	515	0	686	39	21	
5	0	0	0	0	511	514	0	682	39	21	
6	0	0	0	0	508	515	0	689	38	21	
7	0	0	0	0	520	516	0	695	39	21	
8	0	0	0	0	508	517	1	679	38	21	
9	0	0	0	0	511	514	0	653	39	21	
10	0	0	0	0	507	514	0	632	39	21	
11	0	0	0	0	511	515	0	620	39	21	
12	0	0	0	0	503	512	0	610	39	21	
13	0	0	0	0	508	514	0	611	39	21	
14	0	0	0	0	503	513	0	606	38	21	
15	0	0	0	0	508	514	0	595	39	21	
0	0	0	0	0	509	511	0	579	39	21	
1	0	0	0	0	508	510	0	569	39	21	
2	0	0	0	0	511	510	0	563	39	21	
3	0	0	0	0	508	511	0	558	38	21	
4	0	0	0	0	506	512	0	552	39	21	
5	0	0	0	0	511	513	0	554	39	21	
6	0	0	0	0	507	512	0	550	38	21	
7	0	0	0	0	512	512	0	552	38	21	
8	0	0	0	0	512	510	0	558	39	21	
9	0	0	0	0	510	510	0	550	39	21	
10	0	0	0	0	517	512	0	536	39	21	
11	0	0	0	0	511	511	0	540	39	21	
12	0	0	0	0	512	511	1	553	39	21	
13	0	0	0	0	518	511	0	574	38	21	
14	0	0	0	0	509	511	0	584	38	21	
15	0	0	0	0	504	511	0	583	38	21	
0	0	0	0	0	504	512	0	570	39	21	
1	0	0	0	0	507	515	0	564	39	21	
2	0	0	0	0	509	514	0	556	39	21	
3	0	0	0	0	512	512	0	555	39	21	
4	0	0	0	0	503	513	0	548	39	21	
5	0	0	0	0	504	511	0	544	39	21	
6	0	0	0	0	513	509	0	544	38	21	
7	0	0	0	0	503	511	0	535	38	21	
8	0	0	0	0	515	510	0	534	39	21	
9	0	0	0	0	512	511	0	528	39	21	
10	0	0	0	0	515	511	0	536	39	21	
11	0	0	0	0	512	510	0	557	39	21	
12	0	0	0	0	510	511	0	563	39	21	
13	0	0	0	0	516	512	0	568	39	21	
14	0	0	0	0	512	513	0	574	38	21	
15	0	0	0	0	508	513	0	589	39	21	
0	0	0	0	0	507	515	1	598	38	21	
1	0	0	0	0	510	513	0	606	39	21	
2	0	0	0	0	508	513	0	606	39	21	
3	0	0	0	0	508	513	0	603	39	21	
4	0	0	0	0	508	512	0	591	39	21	
5	0	0	0	0	505	511	0	572	39	21	
6	0	0	0	0	510	508	0	542	38	21	
7	0	0	0	0	510	511	0	524	39	21	
8	0	0	0	0	518	510	0	515	38	21	
9	0	0	0	0	514	509	0	500	39	21	
10	0	0	0	0	512	511	0	496	39	21	
11	0	0	0	0	516	511	0	490	39	21	
12	0	0	0	0	511	508	0	481	39	21	
13	0	0	0	0	505	508	0	463	38	21	
14	0	0	0	0	512	508	0	437	38	21	
15	0	0	0	0	505	509	0	424	38	21	
0	0	0	0	0	511	507	0	423	39	21	
1	0	0	0	0	444	278	0	592	39	21	
2	0	0	0	0	114	163	0	1018	39	21	
3	0	0	0	0	267	172	0	1017	39	21	
4	0	0	0	0	263	179	0	1018	39	21	
5	0	0	0	0	254	185	0	1017	39	21	
6	0	0	0	0	242	190	0	1017	38	21	
7	0	0	0	0	239	195	0	1017	38	21	
8	0	0	0	0	225	196	0	0	39	21	
9	0	0	0	0	214	199	0	0	39	21	
10	0	0	0	0	220	202	0	0	39	21	
11	0	0	0	0	217	205	0	0	38	21	
12	0	0	0	0	932	541	0	0	39	21	
13	0	0	0	0	501	555	0	0	39	21	
14	0	0	0	0	438	545	0	0	38	21	
15	0	0	0	0	449	539	0	0	39	21	
0	0	0	0	0	474	532	0	0	38	21	
1	0	0	0	0	470	527	0	0	38	21	
2	0	0	0	0	487	523	0	0	39	21	
3	0	0	0	0	496	520	0	0	39	21	
4	0	0	0	0	494	519	0	0	39	21	
5	0	0	0	0	504	516	0	0	39	21	
6	0	0	0	0	500	516	0	0	38	21	
7	0	0	0	0	502	517	0	0	39	21	
8	0	0	0	0	510	514	0	0	39	21	
9	0	0	0	0	513	515	0	258	39	21	
10	0	0	0	0	513	513	0	516	39	21	
11	0	0	0	0	513	515	0	716	38	21	
12	0	0	0	0	513	515	0	867	39	21	
13	0	0	0	0	511	514	0	986	39	21	
14	0	0	0	0	511	514	0	1018	38	21	
15	0	0	0	0	516	513	0	1018	39	21	
0	0	0	0	0	509	514	0	1019	38	21	
1	0	0	0	0	502	514	0	1018	39	21	
2	0	0	0	0	509	515	0	1018	39	21	
3	0	0	0	0	509	517	0	1018	39	21	
4	0	0	0	0	507	515	1	1019	39	21	
5	0	0	0	0	506	514	0	1018	38	21	
6	0	0	0	0	512	512	0	1018	38	21	
7	0	0	0	0	511	512	0	1018	38	21	
8	0	0	0	0	507	510	0	1019	39	21	
9	0	0	0	0	509	511	0	1018	39	21	
10	0	0	0	0	514	512	0	1018	39	21	
11	0	0	0	0	516	512	0	1018	39	21	
12	0	0	0	0	510	512	0	1019	39	21	
13	0	0	0	0	515	513	0	1018	39	21	
14	0	0	0	0	517	514	0	1018	38	21	
15	0	0	0	0	508	515	0	1018	39	21	
0	0	0	0	0	514	513	1	1019	38	21	
1	0	0	0	0	508	512	0	1018	39	21	
2	0	0	0	0	510	512	0	1018	39	21	
3	0	0	0	0	507	510	0	1018	39	21	
4	0	0	0	0	504	512	1	1019	39	21	
5	0	0	0	0	506	511	0	1018	39	21	
6	0	0	0	0	509	511	0	1018	38	21	
7	0	0	0	0	514	511	0	1018	39	21	
8	0	0	0	0	513	510	0	1018	39	21	
9	0	0	0	0	509	509	0	1018	39	21	
10	0	0	0	0	510	508	0	1018	39	21	
11	0	0	0	0	513	509	0	1018	39	21	
12	0	0	0	0	508	510	0	1019	39	21	
13	0	0	0	0	519	509	0	1018	39	21	
14	0	0	0	0	508	510	0	1018	38	21	
15	0	0	0	0	512	512	0	1018	39	21	
0	0	0	0	0	512	510	0	1019	39	21	
1	0	0	0	0	509	510	0	1018	39	21	
2	0	0	0	0	509	511	0	1018	39	21	
3	0	0	0	0	513	512	0	1018	39	21	
4	0	0	0	0	515	511	0	1019	39	21	
5	0	0	0	0	500	512	0	1018	39	21	
6	0	0	0	0	506	512	0	1018	38	21	
7	0	0	0	0	504	513	0	1018	39	21	
8	0	0	0	0	509	513	1	945	38	21	
9	0	0	0	0	505	512	0	916	39	21	
10	0	0	0	0	507	512	0	900	39	21	
11	0	0	0	0	512	514	0	897	38	21	
12	0	0	0	0	515	513	1	895	39	21	
13	0	0	0	0	505	513	0	899	38	21	
14	0	0	0	0	512	511	0	901	38	21	
15	0	0	0	0	512	512	0	902	38	21	
0	0	0	0	0	513	510	0	916	39	21	
1	0	0	0	0	517	511	0	929	39	21	
2	0	0	0	0	513	512	0	934	39	21	
3	0	0	0	0	505	512	0	938	39	21	
4	0	0	0	0	505	513	1	941	39	21	
5	0	0	0	0	505	510	0	948	39	21	
6	0	0	0	0	506	510	0	948	38	21	
7	0	0	0	0	507	510	0	948	39	21	
8	0	0	0	0	507	510	1	949	38	21	
9	0	0	0	0	510	508	0	950	39	21	
10	0	0	0	0	506	509	0	946	39	21	
11	0	0	0	0	513	511	0	921	39	21	
12	0	0	0	0	515	512	1	869	39	21	
13	0	0	0	0	519	511	0	837	39	21	
14	0	0	0	0	503	512	0	810	38	21	
15	0	0	0	0	515	513	0	787	39	21	
0	0	0	0	0	519	514	1	769	38	21	
1	0	0	0	0	512	513	0	761	39	21	
2	0	0	0	0	509	513	0	766	39	21	
3	0	0	0	0	516	512	0	780	39	21	
4	0	0	0	0	496	512	1	795	39	21	
5	0	0	0	0	506	512	0	809	39	21	
6	0	0	0	0	518	513	0	799	38	21	
7	0	0	0	0	497	514	0	799	38	21	
8	0	0	0	0	506	514	1	799	38	21	
9	0	0	0	0	509	514	0	798	39	21	
10	0	0	0	0	509	515	0	788	39	21	
11	0	0	0	0	511	515	0	775	39	21	
12	0	0	0	0	513	515	1	778	39	21	
13	0	0	0	0	512	513	0	778	39	21	
14	0	0	0	0	512	515	0	778	38	21	
15	0	0	0	0	507	515	0	788	39	21	
0	0	0	0	0	512	513	1	797	38	21	
1	0	0	0	0	510	510	0	803	39	21	
2	0	0	0	0	511	511	0	812	39	21	
3	0	0	0	0	511	513	0	806	39	21	
4	0	0	0	0	508	513	0	794	39	21	
5	0	0	0	0	506	513	0	788	39	21	
6	0	0	0	0	509	514	0	778	38	21	
7	0	0	0	0	509	514	0	790	39	21	
8	0	0	0	0	506	513	0	803	39	21	
9	0	0	0	0	512	512	0	808	39	21	
10	0	0	0	0	510	512	0	800	39	21	
11	0	0	0	0	514	514	0	785	39	21	
12	0	0	0	0	511	513	0	777	39	21	
13	0	0	0	0	513	513	0	771	39	21	
14	0	0	0	0	510	514	0	769	38	21	
15	0	0	0	0	512	513	0	775	39	21	
0	0	0	0	0	514	511	0	784	39	21	
1	0	0	0	0	516	510	0	788	39	21	
2	0	0	0	0	511	512	0	775	39	21	
3	0	0	0	0	513	514	0	765	39	21	
4	0	0	0	0	505	514	0	750	39	21	
5	0	0	0	0	508	514	0	728	39	21	
6	0	0	0	0	508	514	0	699	38	21	
7	0	0	0	0	513	513	0	675	39	21	
8	0	0	0	0	510	512	0	666	39	21	
9	0	0	0	0	504	511	0	657	39	21	
10	0	0	0	0	512	513	0	657	39	21	
11	0	0	0	0	508	513	0	658	39	21	
12	0	0	0	0	508	512	0	654	39	21	
13	0	0	0	0	506	511	0	639	39	21	
14	0	0	0	0	513	510	0	629	38	21	
15	0	0	0	0	513	509	0	636	38	21	
0	0	0	0	0	518	510	1	645	38	21	
1	0	0	0	0	516	511	0	660	39	21	
2	0	0	0	0	510	512	0	674	39	21	
3	0	0	0	0	512	511	0	686	39	21	
4	0	0	0	0	513	510	0	704	39	21	
5	0	0	0	0	503	512	0	705	39	21	
6	0	0	0	0	509	512	0	698	38	21	
7	0	0	0	0	511	515	0	684	39	21	
8	0	0	0	0	507	514	0	678	39	21	
9	0	0	0	0	508	513	0	665	39	21	
10	0	0	0	0	509	512	0	650	39	21	
11	0	0	0	0	504	512	0	637	39	21	
12	0	0	0	0	509	512	1	641	39	21	
13	0	0	0	0	499	512	0	656	39	21	
14	0	0	0	0	515	512	0	661	38	21	
15	0	0	0	0	509	512	0	659	39	21	
0	0	0	0	0	510	511	0	658	39	21	
1	0	0	0	0	518	510	0	647	39	21	
2	0	0	0	0	517	511	0	632	39	21	
3	0	0	0	0	507	511	0	625	39	21	
4	0	0	0	0	511	512	0	610	39	21	
5	0	0	0	0	516	512	0	591	39	21	
6	0	0	0	0	510	511	0	580	38	21	
7	0	0	0	0	503	512	0	583	39	21	
8	0	0	0	0	507	510	0	588	39	21	
9	0	0	0	0	510	510	0	601	39	21	
10	0	0	0	0	508	511	0	620	39	21	
11	0	0	0	0	510	511	0	634	39	21	
12	0	0	0	0	515	510	0	655	39	21	
13	0	0	0	0	511	510	0	667	39	21	
14	0	0	0	0	512	510	0	656	38	21	
15	0	0	0	0	509	512	0	646	39	21	
0	0	0	0	0	509	510	0	643	38	21	
1	0	0	0	0	517	511	0	660	39	21	
2	0	0	0	0	513	511	0	665	39	21	
3	0	0	0	0	505	511	0	676	38	21	
4	0	0	0	0	516	511	0	681	39	21	
5	0	0	0	0	512	512	0	676	39	21	
6	0	0	0	0	508	513	0	682	38	21	
7	0	0	0	0	504	513	0	684	39	21	
8	0	0	0	0	508	512	0	682	39	21	
9	0	0	0	0	505	513	0	684	39	21	
10	0	0	0	0	511	511	0	682	39	21	
11	0	0	0	0	504	513	0	673	39	21	
12	0	0	0	0	508	514	0	660	39	21	
13	0	0	0	0	512	514	0	654	39	21	
14	0	0	0	0	514	513	0	660	38	21	
15	0	0	0	0	507	512	0	670	39	21	
0	0	0	0	0	510	512	0	664	39	21	
1	0	0	0	0	512	511	0	651	39	21	
2	0	0	0	0	511	512	0	655	39	21	
3	0	0	0	0	508	512	0	661	39	21	
4	0	0	0	0	517	511	0	673	39	21	
5	0	0	0	0	512	510	0	684	39	21	
6	0	0	0	0	516	511	0	699	38	21	
7	0	0	0	0	505	512	0	708	39	21	
8	0	0	0	0	507	511	1	697	38	21	
9	0	0	0	0	508	510	0	688	39	21	
10	0	0	0	0	514	510	0	670	39	21	
11	0	0	0	0	503	509	0	669	39	21	
12	0	0	0	0	512	510	0	663	39	21	
13	0	0	0	0	508	511	0	650	39	21	
14	0	0	0	0	511	511	0	630	38	21	
15	0	0	0	0	508	512	0	617	38	21	
0	0	0	0	0	510	511	0	603	38	21	
1	0	0	0	0	507	510	0	604	39	21	
2	0	0	0	0	505	511	0	614	39	21	
3	0	0	0	0	511	512	0	639	39	21	
4	0	0	0	0	514	510	0	673	39	21	
5	0	0	0	0	508	511	0	695	39	21	
6	0	0	0	0	513	511	0	720	38	21	
7	0	0	0	0	509	511	0	742	39	21	
8	0	0	0	0	500	513	1	748	38	21	
9	0	0	0	0	504	512	0	739	39	21	
10	0	0	0	0	516	511	0	726	39	21	
11	0	0	0	0	513	511	0	723	38	21	
12	0	0	0	0	508	511	0	731	39	21	
13	0	0	0	0	516	511	0	752	38	21	
14	0	0	0	0	511	512	0	764	38	21	
15	0	0	0	0	504	513	0	753	39	21	
0	0	0	0	0	516	513	0	739	39	21	
1	0	0	0	0	514	512	0	729	39	21	
2	0	0	0	0	509	512	0	728	39	21	
3	0	0	0	0	504	512	0	719	38	21	
4	0	0	0	0	509	512	1	665	39	21	
5	0	0	0	0	517	510	0	637	39	21	
6	0	0	0	0	513	510	0	611	38	21	
7	0	0	0	0	508	510	0	595	39	21	
8	0	0	0	0	510	511	1	582	38	21	
9	0	0	0	0	503	511	0	573	39	21	
10	0	0	0	0	505	512	0	559	39	21	
11	0	0	0	0	514	512	0	543	39	21	
12	0	0	0	0	510	513	1	533	39	21	
13	0	0	0	0	509	513	0	530	39	21	
14	0	0	0	0	505	512	0	528	38	21	
15	0	0	0	0	504	513	0	518	39	21	
0	0	0	0	0	513	512	0	509	39	21	
1	0	0	0	0	519	512	0	512	39	21	
2	0	0	0	0	512	510	0	529	39	21	
3	0	0	0	0	512	513	0	534	39	21	
4	0	0	0	0	506	512	0	547	39	21	
5	0	0	0	0	511	513	0	566	39	21	
6	0	0	0	0	507	514	0	585	38	21	
7	0	0	0	0	507	515	0	589	38	21	
8	0	0	0	0	513	512	0	592	39	21	
9	0	0	0	0	512	511	0	607	39	21	
10	0	0	0	0	506	513	0	615	39	21	
11	0	0	0	0	512	513	0	633	39	21	
12	0	0	0	0	509	515	1	640	39	21	
13	0	0	0	0	504	513	0	637	39	21	
14	0	0	0	0	511	512	0	622	38	21	
15	0	0	0	0	509	512	0	606	39	21	
0	0	0	0	0	512	512	1	593	38	21	
1	0	0	0	0	513	512	0	597	39	21	
2	0	0	0	0	0	174	0	1017	39	21	
3	0	0	0	0	245	172	0	1017	39	21	
4	0	0	0	0	282	179	0	1019	39	21	
5	0	0	0	0	262	186	0	1017	39	21	
6	0	0	0	0	254	191	0	1017	38	21	
7	0	0	0	0	237	196	0	1017	39	21	
8	0	0	0	0	229	198	0	503	39	21	
9	0	0	0	0	226	200	0	0	39	21	
10	0	0	0	0	220	204	0	0	39	21	
11	0	0	0	0	212	206	0	0	39	21	
12	0	0	0	0	210	207	0	0	39	21	
13	0	0	0	0	918	540	0	0	39	21	
14	0	0	0	0	508	558	0	0	38	21	
15	0	0	0	0	435	548	0	0	39	21	
0	0	0	0	0	443	540	0	0	38	21	
1	0	0	0	0	468	532	0	0	39	21	
2	0	0	0	0	479	529	0	0	39	21	
3	0	0	0	0	493	527	0	0	39	21	
4	0	0	0	0	495	521	1	0	39	21	
5	0	0	0	0	496	518	0	0	38	21	
6	0	0	0	0	503	518	0	0	38	21	
7	0	0	0	0	515	517	0	0	38	21	
8	0	0	0	0	513	518	0	0	38	21	
9	0	0	0	0	504	516	0	0	39	21	
10	0	0	0	0	506	516	0	365	39	21	
11	0	0	0	0	505	515	0	627	39	21	
12	0	0	0	0	513	515	0	825	39	21	
13	0	0	0	0	514	516	0	954	39	21	
14	0	0	0	0	506	514	0	1018	38	21	
15	0	0	0	0	505	513	0	1018	38	21	
0	0	0	0	0	507	511	0	1019	38	21	
1	0	0	0	0	509	509	0	1018	39	21	
2	0	0	0	0	507	508	0	1018	39	21	
3	0	0	0	0	515	510	0	1018	39	21	
4	0	0	0	0	514	511	0	1019	39	21	
5	0	0	0	0	511	511	0	1018	39	21	
6	0	0	0	0	508	511	0	1018	38	21	
7	0	0	0	0	517	512	0	1018	38	21	
8	0	0	0	0	513	510	0	1018	38	21	
9	0	0	0	0	516	512	0	1018	39	21	
10	0	0	0	0	516	512	0	1018	39	21	
11	0	0	0	0	510	513	0	1018	39	21	
12	0	0	0	0	506	512	0	1019	39	21	
13	0	0	0	0	508	511	0	1018	39	21	
14	0	0	0	0	513	513	0	1018	38	21	
15	0	0	0	0	509	513	0	1018	39	21	
0	0	0	0	0	507	511	0	1018	38	21	
1	0	0	0	0	501	511	0	1018	39	21	
2	0	0	0	0	506	512	0	1018	39	21	
3	0	0	0	0	514	511	0	1018	39	21	
4	0	0	0	0	514	510	0	970	39	21	
5	0	0	0	0	512	511	0	971	39	21	
6	0	0	0	0	507	509	0	972	38	21	
7	0	0	0	0	510	510	0	987	39	21	
8	0	0	0	0	507	512	1	993	38	21	
9	0	0	0	0	510	512	0	1011	39	21	
10	0	0	0	0	511	512	0	1018	39	21	
11	0	0	0	0	504	511	0	1017	39	21	
12	0	0	0	0	512	510	0	1018	39	21	
13	0	0	0	0	510	512	0	1018	39	21	
14	0	0	0	0	515	512	0	1018	38	21	
15	0	0	0	0	512	514	0	1018	39	21	
0	0	0	0	0	511	512	1	1019	38	21	
1	0	0	0	0	508	512	0	1018	39	21	
2	0	0	0	0	512	514	0	1018	39	21	
3	0	0	0	0	510	513	0	1017	39	21	
4	0	0	0	0	514	510	0	966	39	21	
5	0	0	0	0	506	510	0	951	39	21	
6	0	0	0	0	512	510	0	931	38	21	
7	0	0	0	0	511	512	0	926	39	21	
8	0	0	0	0	512	512	1	934	38	21	
9	0	0	0	0	514	512	0	940	39	21	
10	0	0	0	0	511	513	0	953	39	21	
11	0	0	0	0	513	514	0	960	38	21	
12	0	0	0	0	513	515	1	955	39	21	
13	0	0	0	0	505	513	0	954	39	21	
14	0	0	0	0	508	511	0	956	38	21	
15	0	0	0	0	511	512	0	969	38	21	
0	0	0	0	0	503	515	1	981	38	21	
1	0	0	0	0	505	512	0	985	39	21	
2	0	0	0	0	507	513	0	979	39	21	
3	0	0	0	0	503	513	0	970	39	21	
4	0	0	0	0	507	511	0	946	39	21	
5	0	0	0	0	517	511	0	935	39	21	
6	0	0	0	0	513	511	0	931	38	21	
7	0	0	0	0	514	512	0	935	39	21	
8	0	0	0	0	507	512	1	927	38	21	
9	0	0	0	0	516	510	0	917	39	21	
10	0	0	0	0	511	511	0	908	39	21	
11	0	0	0	0	511	512	0	909	39	21	
12	0	0	0	0	517	511	0	911	39	21	
13	0	0	0	0	509	513	0	909	39	21	
14	0	0	0	0	507	514	0	903	38	21	
15	0	0	0	0	507	514	0	887	38	21	
0	0	0	0	0	510	515	0	880	39	21	
1	0	0	0	0	512	513	0	894	39	21	
2	0	0	0	0	513	512	0	878	39	21	
3	0	0	0	0	507	512	0	865	39	21	
4	0	0	0	0	506	515	1	839	39	21	
5	0	0	0	0	506	513	0	808	39	21	
6	0	0	0	0	512	512	0	773	38	21	
7	0	0	0	0	515	512	0	743	38	21	
8	0	0	0	0	510	512	1	737	38	21	
9	0	0	0	0	511	509	0	739	39	21	
10	0	0	0	0	516	511	0	747	39	21	
11	0	0	0	0	510	512	0	755	39	21	
12	0	0	0	0	505	512	1	753	39	21	
13	0	0	0	0	515	512	0	757	39	21	
14	0	0	0	0	512	512	0	766	38	21	
15	0	0	0	0	510	514	0	776	38	21	
0	0	0	0	0	505	514	0	779	38	21	
1	0	0	0	0	510	512	0	788	39	21	
2	0	0	0	0	503	511	0	783	39	21	
3	0	0	0	0	508	511	0	776	39	21	
4	0	0	0	0	508	512	1	781	39	21	
5	0	0	0	0	509	513	0	782	39	21	
6	0	0	0	0	508	513	0	802	38	21	
7	0	0	0	0	512	513	0	806	39	21	
8	0	0	0	0	513	512	1	803	38	21	
9	0	0	0	0	518	512	0	812	39	21	
10	0	0	0	0	513	513	0	804	39	21	
11	0	0	0	0	509	512	0	794	38	21	
12	0	0	0	0	511	512	1	780	39	21	
13	0	0	0	0	508	510	0	772	39	21	
14	0	0	0	0	508	509	0	773	38	21	
15	0	0	0	0	513	509	0	785	39	21	
0	0	0	0	0	512	512	1	784	38	21	
1	0	0	0	0	506	510	0	775	39	21	
2	0	0	0	0	508	512	0	775	39	21	
3	0	0	0	0	500	513	0	764	39	21	
4	0	0	0	0	509	513	0	744	39	21	
5	0	0	0	0	515	514	0	734	39	21	
6	0	0	0	0	508	513	0	726	38	21	
7	0	0	0	0	505	513	0	713	39	21	
8	0	0	0	0	516	513	0	697	39	21	
9	0	0	0	0	511	515	0	688	39	21	
10	0	0	0	0	511	515	0	679	39	21	
11	0	0	0	0	511	516	0	667	39	21	
12	0	0	0	0	515	516	1	660	39	21	
13	0	0	0	0	510	516	0	653	39	21	
14	0	0	0	0	515	515	0	650	38	21	
15	0	0	0	0	500	515	0	651	38	21	
0	0	0	0	0	510	513	0	649	39	21	
1	0	0	0	0	509	512	0	657	39	21	
2	0	0	0	0	508	512	0	668	39	21	
3	0	0	0	0	511	512	0	674	39	21	
4	0	0	0	0	504	511	0	675	39	21	
5	0	0	0	0	508	512	0	678	39	21	
6	0	0	0	0	504	511	0	672	38	21	
7	0	0	0	0	513	512	0	666	39	21	
8	0	0	0	0	515	511	0	653	39	21	
9	0	0	0	0	515	511	0	644	39	21	
10	0	0	0	0	512	511	0	641	39	21	
11	0	0	0	0	512	510	0	614	39	21	
12	0	0	0	0	513	512	0	600	39	21	
13	0	0	0	0	510	512	0	593	39	21	
14	0	0	0	0	513	511	0	591	38	21	
15	0	0	0	0	511	511	0	593	38	21	
0	0	0	0	0	504	511	1	595	38	21	
1	0	0	0	0	504	509	0	608	39	21	
2	0	0	0	0	508	510	0	617	39	21	
3	0	0	0	0	511	510	0	624	39	21	
4	0	0	0	0	511	508	0	635	39	21	
5	0	0	0	0	508	509	0	635	39	21	
6	0	0	0	0	508	507	0	624	38	21	
7	0	0	0	0	506	506	0	608	38	21	
8	0	0	0	0	513	505	0	600	38	21	
9	0	0	0	0	513	505	0	583	39	21	
10	0	0	0	0	507	506	0	567	39	21	
11	0	0	0	0	507	507	0	567	39	21	
12	0	0	0	0	510	505	0	572	39	21	
13	0	0	0	0	514	507	0	584	39	21	
14	0	0	0	0	510	507	0	582	38	21	
15	0	0	0	0	514	509	0	596	39	21	
0	0	0	0	0	499	511	0	611	38	21	
1	0	0	0	0	511	512	0	621	39	21	
2	0	0	0	0	519	511	0	636	39	21	
3	0	0	0	0	508	512	0	665	38	21	
4	0	0	0	0	507	512	1	683	39	21	
5	0	0	0	0	504	511	0	678	38	21	
6	0	0	0	0	504	513	0	661	38	21	
7	0	0	0	0	505	513	0	630	39	21	
8	0	0	0	0	512	513	0	603	38	21	
9	0	0	0	0	520	510	0	581	39	21	
10	0	0	0	0	518	511	0	563	39	21	
11	0	0	0	0	506	513	0	546	39	21	
12	0	0	0	0	503	513	0	537	39	21	
13	0	0	0	0	508	514	0	539	39	21	
14	0	0	0	0	518	514	0	555	38	21	
15	0	0	0	0	516	512	0	571	38	21	
0	0	0	0	0	514	509	0	586	39	21	
1	0	0	0	0	508	508	0	605	39	21	
2	0	0	0	0	508	508	0	613	39	21	
3	0	0	0	0	504	508	0	614	38	21	
4	0	0	0	0	507	511	0	602	39	21	
5	0	0	0	0	509	509	0	591	39	21	
6	0	0	0	0	514	510	0	595	38	21	
7	0	0	0	0	505	508	0	606	39	21	
8	0	0	0	0	506	511	1	613	38	21	
9	0	0	0	0	512	511	0	612	39	21	
10	0	0	0	0	507	511	0	603	39	21	
11	0	0	0	0	516	511	0	605	39	21	
12	0	0	0	0	509	511	0	603	39	21	
13	0	0	0	0	515	509	0	594	39	21	
14	0	0	0	0	508	511	0	593	38	21	
15	0	0	0	0	514	513	0	598	39	21	
0	0	0	0	0	507	511	0	595	39	21	
1	0	0	0	0	509	511	0	591	39	21	
2	0	0	0	0	511	514	0	579	39	21	
3	0	0	0	0	509	514	0	579	39	21	
4	0	0	0	0	505	514	0	571	39	21	
5	0	0	0	0	513	514	0	570	39	21	
6	0	0	0	0	512	513	0	566	38	21	
7	0	0	0	0	508	512	0	556	39	21	
8	0	0	0	0	506	513	0	557	38	21	
9	0	0	0	0	505	511	0	548	39	21	
10	0	0	0	0	512	510	0	536	39	21	
11	0	0	0	0	516	510	0	515	39	21	
12	0	0	0	0	518	513	1	502	39	21	
13	0	0	0	0	508	511	0	491	39	21	
14	0	0	0	0	511	510	0	487	38	21	
15	0	0	0	0	518	510	0	491	39	21	
0	0	0	0	0	515	509	0	502	39	21	
1	0	0	0	0	508	511	0	519	39	21	
2	0	0	0	0	507	511	0	514	39	21	
3	0	0	0	0	511	512	0	522	39	21	
4	0	0	0	0	505	511	0	526	39	21	
5	0	0	0	0	507	510	0	536	39	21	
6	0	0	0	0	509	510	0	540	38	21	
7	0	0	0	0	502	509	0	533	38	21	
8	0	0	0	0	514	508	0	532	39	21	
9	0	0	0	0	508	508	0	531	39	21	
10	0	0	0	0	511	511	0	508	39	21	
11	0	0	0	0	513	512	0	497	38	21	
12	0	0	0	0	509	510	0	495	39	21	
13	0	0	0	0	508	510	0	508	39	21	
14	0	0	0	0	509	513	0	513	38	21	
15	0	0	0	0	513	515	0	528	38	21	
0	0	0	0	0	514	514	1	546	38	21	
1	0	0	0	0	511	515	0	551	39	21	
2	0	0	0	0	511	514	0	554	39	21	
3	0	0	0	0	505	515	0	561	39	21	
4	0	0	0	0	518	514	0	551	39	21	
5	0	0	0	0	504	513	0	534	39	21	
6	0	0	0	0	500	512	0	515	38	21	
7	0	0	0	0	503	511	0	498	39	21	
8	0	0	0	0	513	512	0	476	39	21	
9	0	0	0	0	511	513	0	463	39	21	
10	0	0	0	0	515	513	0	460	39	21	
11	0	0	0	0	506	512	0	476	39	21	
12	0	0	0	0	507	510	0	500	39	21	
13	0	0	0	0	515	511	0	512	39	21	
14	0	0	0	0	518	510	0	535	38	21	
15	0	0	0	0	511	512	0	567	39	21	
0	0	0	0	0	517	511	0	600	39	21	
1	0	0	0	0	505	513	0	635	39	21	
2	0	0	0	0	0	173	0	1018	39	21	
3	0	0	0	0	263	175	0	1017	39	21	
4	0	0	0	0	274	181	0	1019	39	21	
5	0	0	0	0	260	186	0	1017	39	21	
6	0	0	0	0	248	193	0	1017	38	21	
7	0	0	0	0	238	196	0	1017	39	21	
8	0	0	0	0	216	200	0	423	38	21	
9	0	0	0	0	213	202	0	0	39	21	
10	0	0	0	0	217	204	0	0	39	21	
11	0	0	0	0	217	206	0	0	39	21	
12	0	0	0	0	931	542	0	0	39	21	
13	0	0	0	0	503	555	0	0	39	21	
14	0	0	0	0	447	547	0	0	38	21	
15	0	0	0	0	453	540	0	0	38	21	
0	0	0	0	0	464	534	0	0	38	21	
1	0	0	0	0	487	529	0	0	39	21	
2	0	0	0	0	490	525	0	0	39	21	
3	0	0	0	0	491	523	0	0	39	21	
4	0	0	0	0	499	520	0	0	39	21	
5	0	0	0	0	493	519	0	0	39	21	
6	0	0	0	0	499	518	0	0	38	21	
7	0	0	0	0	504	517	0	0	39	21	
8	0	0	0	0	514	515	0	0	39	21	
9	0	0	0	0	509	515	0	358	39	21	
10	0	0	0	0	509	515	0	615	39	21	
11	0	0	0	0	505	515	0	793	39	21	
12	0	0	0	0	515	515	0	933	39	21	
13	0	0	0	0	506	513	0	1018	39	21	
14	0	0	0	0	520	512	0	1018	38	21	
15	0	0	0	0	511	512	0	1018	39	21	
0	0	0	0	0	508	510	0	1019	39	21	
1	0	0	0	0	512	510	0	1018	39	21	
2	0	0	0	0	515	509	0	1018	39	21	
3	0	0	0	0	507	511	0	1018	39	21	
4	0	0	0	0	512	514	1	1019	39	21	
5	0	0	0	0	510	514	0	1018	39	21	
6	0	0	0	0	511	513	0	1018	38	21	
7	0	0	0	0	502	513	0	1018	39	21	
8	0	0	0	0	508	511	0	1018	39	21	
9	0	0	0	0	509	512	0	1018	39	21	
10	0	0	0	0	514	514	0	1018	39	21	
11	0	0	0	0	503	513	0	1018	39	21	
12	0	0	0	0	505	511	0	1019	39	21	
13	0	0	0	0	514	511	0	1018	39	21	
14	0	0	0	0	515	512	0	1018	38	21	
15	0	0	0	0	508	512	0	1018	38	21	
0	0	0	0	0	508	513	0	1019	39	21	
1	0	0	0	0	513	514	0	1018	39	21	
2	0	0	0	0	515	513	0	1018	39	21	
3	0	0	0	0	514	514	0	1018	39	21	
4	0	0	0	0	512	515	1	1019	39	21	
5	0	0	0	0	510	515	0	1018	38	21	
6	0	0	0	0	515	515	0	1018	38	21	
7	0	0	0	0	506	516	0	1018	38	21	
8	0	0	0	0	500	515	1	1019	38	21	
9	0	0	0	0	511	514	0	1018	39	21	
10	0	0	0	0	512	515	0	1018	39	21	
11	0	0	0	0	507	516	0	1018	39	21	
12	0	0	0	0	504	514	0	1019	39	21	
13	0	0	0	0	508	513	0	993	39	21	
14	0	0	0	0	516	514	0	990	38	21	
15	0	0	0	0	507	515	0	995	39	21	
0	0	0	0	0	516	515	1	1011	38	21	
1	0	0	0	0	517	515	0	1018	39	21	
2	0	0	0	0	511	514	0	1018	39	21	
3	0	0	0	0	515	514	0	1018	39	21	
4	0	0	0	0	511	514	1	1019	39	21	
5	0	0	0	0	514	513	0	1018	39	21	
6	0	0	0	0	509	513	0	1018	38	21	
7	0	0	0	0	505	513	0	1018	39	21	
8	0	0	0	0	512	511	0	1019	39	21	
9	0	0	0	0	507	510	0	1018	39	21	
10	0	0	0	0	511	511	0	1018	39	21	
11	0	0	0	0	505	511	0	1018	39	21	
12	0	0	0	0	503	511	1	1019	39	21	
13	0	0	0	0	511	510	0	1018	39	21	
14	0	0	0	0	507	511	0	1018	38	21	
15	0	0	0	0	503	512	0	1018	38	21	
0	0	0	0	0	503	513	1	983	38	21	
1	0	0	0	0	508	512	0	968	39	21	
2	0	0	0	0	514	510	0	959	39	21	
3	0	0	0	0	516	510	0	938	39	21	
4	0	0	0	0	508	514	1	930	39	21	
5	0	0	0	0	512	510	0	932	38	21	
6	0	0	0	0	515	511	0	927	38	21	
7	0	0	0	0	510	511	0	925	38	21	
8	0	0	0	0	509	510	0	922	39	21	
9	0	0	0	0	507	509	0	910	39	21	
10	0	0	0	0	510	508	0	906	39	21	
11	0	0	0	0	506	512	0	887	39	21	
12	0	0	0	0	509	511	0	868	39	21	
13	0	0	0	0	512	511	0	848	39	21	
14	0	0	0	0	516	511	0	821	38	21	
15	0	0	0	0	513	510	0	802	39	21	
0	0	0	0	0	511	509	0	796	39	21	
1	0	0	0	0	509	507	0	784	39	21	
2	0	0	0	0	518	511	0	763	39	21	
3	0	0	0	0	511	511	0	740	39	21	
4	0	0	0	0	508	512	0	725	39	21	
5	0	0	0	0	511	513	0	714	39	21	
6	0	0	0	0	512	515	0	698	38	21	
7	0	0	0	0	506	515	0	702	39	21	
8	0	0	0	0	500	511	0	722	39	21	
9	0	0	0	0	508	511	0	747	39	21	
10	0	0	0	0	508	511	0	776	39	21	
11	0	0	0	0	509	510	0	796	38	21	
12	0	0	0	0	510	509	1	803	39	21	
13	0	0	0	0	510	508	0	802	39	21	
14	0	0	0	0	510	508	0	787	38	21	
15	0	0	0	0	507	508	0	793	39	21	
0	0	0	0	0	515	512	1	795	38	21	
1	0	0	0	0	515	511	0	769	39	21	
2	0	0	0	0	516	510	0	752	39	21	
3	0	0	0	0	514	510	0	725	39	21	
4	0	0	0	0	519	510	0	702	39	21	
5	0	0	0	0	510	510	0	684	39	21	
6	0	0	0	0	508	510	0	676	38	21	
7	0	0	0	0	504	513	0	682	39	21	
8	0	0	0	0	508	514	1	688	38	21	
9	0	0	0	0	509	512	0	704	39	21	
10	0	0	0	0	510	513	0	719	39	21	
11	0	0	0	0	509	513	0	731	39	21	
12	0	0	0	0	510	513	1	733	39	21	
13	0	0	0	0	499	511	0	726	39	21	
14	0	0	0	0	506	510	0	720	38	21	
15	0	0	0	0	515	510	0	717	39	21	
0	0	0	0	0	509	510	0	709	39	21	
1	0	0	0	0	510	510	0	697	39	21	
2	0	0	0	0	509	512	0	686	39	21	
3	0	0	0	0	511	512	0	671	39	21	
4	0	0	0	0	518	510	0	662	39	21	
5	0	0	0	0	514	510	0	656	39	21	
6	0	0	0	0	514	511	0	655	38	21	
7	0	0	0	0	512	510	0	660	39	21	
8	0	0	0	0	505	508	0	662	39	21	
9	0	0	0	0	503	508	0	662	39	21	
10	0	0	0	0	504	510	0	677	39	21	
11	0	0	0	0	512	513	0	694	39	21	
12	0	0	0	0	512	512	0	697	39	21	
13	0	0	0	0	508	511	0	698	39	21	
14	0	0	0	0	504	512	0	682	38	21	
15	0	0	0	0	503	513	0	668	39	21	
0	0	0	0	0	518	515	1	668	38	21	
1	0	0	0	0	506	513	0	669	39	21	
2	0	0	0	0	513	515	0	680	39	21	
3	0	0	0	0	516	515	0	694	39	21	
4	0	0	0	0	513	513	0	705	39	21	
5	0	0	0	0	515	511	0	708	39	21	
6	0	0	0	0	512	512	0	708	38	21	
7	0	0	0	0	513	515	0	706	39	21	
8	0	0	0	0	510	514	1	703	38	21	
9	0	0	0	0	513	512	0	686	39	21	
10	0	0	0	0	504	515	0	669	39	21	
11	0	0	0	0	500	515	0	647	39	21	
12	0	0	0	0	508	513	0	633	39	21	
13	0	0	0	0	511	512	0	625	39	21	
14	0	0	0	0	513	511	0	620	38	21	
15	0	0	0	0	515	513	0	609	39	21	
0	0	0	0	0	509	513	1	620	38	21	
1	0	0	0	0	508	513	0	637	39	21	
2	0	0	0	0	512	513	0	645	39	21	
3	0	0	0	0	515	513	0	638	39	21	
4	0	0	0	0	513	515	1	628	39	21	
5	0	0	0	0	512	514	0	622	39	21	
6	0	0	0	0	508	513	0	622	38	21	
7	0	0	0	0	514	513	0	631	39	21	
8	0	0	0	0	508	515	1	641	38	21	
9	0	0	0	0	513	514	0	657	39	21	
10	0	0	0	0	509	514	0	667	39	21	
11	0	0	0	0	506	511	0	669	39	21	
12	0	0	0	0	512	513	1	672	39	21	
13	0	0	0	0	513	512	0	676	39	21	
14	0	0	0	0	509	513	0	676	38	21	
15	0	0	0	0	503	512	0	682	39	21	
0	0	0	0	0	504	512	1	681	38	21	
1	0	0	0	0	509	511	0	682	39	21	
2	0	0	0	0	508	511	0	685	39	21	
3	0	0	0	0	507	511	0	692	39	21	
4	0	0	0	0	512	509	0	694	39	21	
5	0	0	0	0	513	509	0	669	39	21	
6	0	0	0	0	513	508	0	642	38	21	
7	0	0	0	0	505	509	0	619	39	21	
8	0	0	0	0	512	508	1	613	38	21	
9	0	0	0	0	511	509	0	613	39	21	
10	0	0	0	0	511	511	0	623	39	21	
11	0	0	0	0	511	510	0	640	39	21	
12	0	0	0	0	511	508	0	648	39	21	
13	0	0	0	0	512	508	0	640	39	21	
14	0	0	0	0	511	509	0	648	38	21	
15	0	0	0	0	507	510	0	633	39	21	
0	0	0	0	0	509	508	0	620	39	21	
1	0	0	0	0	511	508	0	607	39	21	
2	0	0	0	0	502	509	0	587	39	21	
3	0	0	0	0	508	508	0	568	39	21	
4	0	0	0	0	514	508	0	561	39	21	
5	0	0	0	0	518	509	0	571	39	21	
6	0	0	0	0	511	511	0	571	38	21	
7	0	0	0	0	513	511	0	572	39	21	
8	0	0	0	0	508	510	0	560	39	21	
9	0	0	0	0	507	510	0	557	39	21	
10	0	0	0	0	507	511	0	560	39	21	
11	0	0	0	0	506	513	0	556	39	21	
12	0	0	0	0	507	515	1	554	39	21	
13	0	0	0	0	508	513	0	547	39	21	
14	0	0	0	0	511	512	0	544	38	21	
15	0	0	0	0	512	512	0	556	39	21	
0	0	0	0	0	500	512	0	562	38	21	
1	0	0	0	0	506	511	0	557	39	21	
2	0	0	0	0	510	511	0	547	39	21	
3	0	0	0	0	513	511	0	539	39	21	
4	0	0	0	0	512	511	1	531	39	21	
5	0	0	0	0	514	511	0	543	39	21	
6	0	0	0	0	514	512	0	547	38	21	
7	0	0	0	0	513	510	0	550	38	21	
8	0	0	0	0	516	512	0	562	38	21	
9	0	0	0	0	512	511	0	572	39	21	
10	0	0	0	0	508	511	0	581	39	21	
11	0	0	0	0	510	511	0	598	39	21	
12	0	0	0	0	511	512	1	605	39	21	
13	0	0	0	0	504	510	0	615	39	21	
14	0	0	0	0	511	510	0	627	38	21	
15	0	0	0	0	507	512	0	631	39	21	
0	0	0	0	0	514	510	0	627	39	21	
1	0	0	0	0	508	511	0	612	39	21	
2	0	0	0	0	508	514	0	605	39	21	
3	0	0	0	0	509	514	0	604	39	21	
4	0	0	0	0	512	512	0	587	39	21	
5	0	0	0	0	516	511	0	565	39	21	
6	0	0	0	0	505	512	0	546	38	21	
7	0	0	0	0	509	514	0	540	39	21	
8	0	0	0	0	514	513	0	536	39	21	
9	0	0	0	0	515	512	0	543	39	21	
10	0	0	0	0	510	509	0	544	39	21	
11	0	0	0	0	510	511	0	550	39	21	
12	0	0	0	0	515	512	0	551	39	21	
13	0	0	0	0	513	511	0	534	39	21	
14	0	0	0	0	508	511	0	517	38	21	
15	0	0	0	0	509	513	0	510	39	21	
0	0	0	0	0	511	513	0	495	38	21	
1	0	0	0	0	509	511	0	492	39	21	
2	0	0	0	0	506	511	0	491	39	21	
3	0	0	0	0	508	511	0	484	39	21	
4	0	0	0	0	510	511	0	494	39	21	
5	0	0	0	0	514	512	0	499	39	21	
6	0	0	0	0	515	512	0	518	38	21	
7	0	0	0	0	504	512	0	534	39	21	
8	0	0	0	0	506	512	0	539	38	21	
9	0	0	0	0	522	509	0	534	39	21	
10	0	0	0	0	517	511	0	513	39	21	
11	0	0	0	0	503	511	0	509	39	21	
12	0	0	0	0	508	512	1	503	39	21	
13	0	0	0	0	507	510	0	488	39	21	
14	0	0	0	0	505	510	0	465	38	21	
15	0	0	0	0	500	512	0	439	38	21	
0	0	0	0	0	508	510	0	422	39	21	
1	0	0	0	0	0	168	0	1018	39	21	
2	0	0	0	0	258	171	0	1017	39	21	
3	0	0	0	0	277	179	0	1017	39	21	
4	0	0	0	0	251	186	0	1017	39	21	
5	0	0	0	0	244	191	0	1017	38	21	
6	0	0	0	0	245	198	0	1017	38	21	
7	0	0	0	0	228	199	0	197	39	21	
8	0	0	0	0	218	201	0	0	38	21	
9	0	0	0	0	224	205	0	0	38	21	
10	0	0	0	0	214	209	0	0	39	21	
11	0	0	0	0	930	546	0	0	39	21	
12	0	0	0	0	502	561	0	0	39	21	
13	0	0	0	0	447	548	0	0	39	21	
14	0	0	0	0	446	543	0	0	38	21	
15	0	0	0	0	469	536	0	0	38	21	
0	0	0	0	0	475	532	1	0	38	21	
1	0	0	0	0	483	526	0	0	39	21	
2	0	0	0	0	492	523	0	0	39	21	
3	0	0	0	0	498	521	0	0	38	21	
4	0	0	0	0	504	521	0	0	39	21	
5	0	0	0	0	501	519	0	0	39	21	
6	0	0	0	0	502	517	0	0	38	21	
7	0	0	0	0	509	517	0	0	38	21	
8	0	0	0	0	519	515	0	245	39	21	
9	0	0	0	0	511	514	0	483	39	21	
10	0	0	0	0	513	513	0	674	39	21	
11	0	0	0	0	514	513	0	812	39	21	
12	0	0	0	0	509	514	1	898	39	21	
13	0	0	0	0	508	513	0	961	39	21	
14	0	0	0	0	514	516	0	1012	38	21	
15	0	0	0	0	504	515	0	1018	38	21	
0	0	0	0	0	503	517	0	1019	38	21	
1	0	0	0	0	510	514	0	1018	39	21	
2	0	0	0	0	507	512	0	1018	39	21	
3	0	0	0	0	510	513	0	1018	38	21	
4	0	0	0	0	509	514	1	1019	39	21	
5	0	0	0	0	513	513	0	1018	39	21	
6	0	0	0	0	515	514	0	1018	38	21	
7	0	0	0	0	514	513	0	968	39	21	
8	0	0	0	0	518	513	0	924	39	21	
9	0	0	0	0	513	513	0	899	39	21	
10	0	0	0	0	515	515	0	888	39	21	
11	0	0	0	0	507	515	0	898	39	21	
12	0	0	0	0	517	515	0	917	39	21	
13	0	0	0	0	514	514	0	939	39	21	
14	0	0	0	0	511	515	0	958	38	21	
15	0	0	0	0	505	515	0	972	39	21	
0	0	0	0	0	507	515	1	973	38	21	
1	0	0	0	0	509	514	0	992	39	21	
2	0	0	0	0	514	515	0	1006	39	21	
3	0	0	0	0	509	515	0	1015	39	21	
4	0	0	0	0	506	515	1	1006	39	21	
5	0	0	0	0	499	514	0	985	39	21	
6	0	0	0	0	509	515	0	965	38	21	
7	0	0	0	0	510	515	0	948	39	21	
8	0	0	0	0	509	514	0	933	39	21	
9	0	0	0	0	511	512	0	925	39	21	
10	0	0	0	0	511	510	0	930	39	21	
11	0	0	0	0	514	510	0	933	39	21	
12	0	0	0	0	519	512	1	931	39	21	
13	0	0	0	0	515	512	0	943	39	21	
14	0	0	0	0	517	511	0	962	38	21	
15	0	0	0	0	508	511	0	987	39	21	
0	0	0	0	0	507	511	1	998	38	21	
1	0	0	0	0	509	510	0	1017	39	21	
2	0	0	0	0	503	512	0	1018	39	21	
3	0	0	0	0	512	513	0	1018	39	21	
4	0	0	0	0	508	514	0	1019	39	21	
5	0	0	0	0	508	513	0	1018	38	21	
6	0	0	0	0	508	513	0	1018	38	21	
7	0	0	0	0	511	513	0	1018	39	21	
8	0	0	0	0	505	513	1	1019	38	21	
9	0	0	0	0	518	512	0	1018	39	21	
10	0	0	0	0	516	512	0	1018	39	21	
11	0	0	0	0	514	513	0	1018	38	21	
12	0	0	0	0	507	513	0	1019	39	21	
13	0	0	0	0	513	512	0	1018	39	21	
14	0	0	0	0	512	512	0	1018	38	21	
15	0	0	0	0	513	513	0	1018	39	21	
0	0	0	0	0	510	514	1	1019	38	21	
1	0	0	0	0	503	511	0	1018	39	21	
2	0	0	0	0	510	511	0	1018	39	21	
3	0	0	0	0	514	512	0	1018	39	21	
4	0	0	0	0	502	511	0	1019	39	21	
5	0	0	0	0	507	511	0	1018	39	21	
6	0	0	0	0	505	511	0	1018	38	21	
7	0	0	0	0	511	511	0	960	39	21	
8	0	0	0	0	508	512	1	923	38	21	
9	0	0	0	0	518	511	0	893	39	21	
10	0	0	0	0	512	511	0	869	39	21	
11	0	0	0	0	519	513	0	851	39	21	
12	0	0	0	0	507	512	1	847	39	21	
13	0	0	0	0	508	511	0	854	39	21	
14	0	0	0	0	516	511	0	878	38	21	
15	0	0	0	0	506	512	0	884	39	21	
0	0	0	0	0	506	513	0	900	39	21	
1	0	0	0	0	504	514	0	917	39	21	
2	0	0	0	0	507	514	0	929	39	21	
3	0	0	0	0	513	514	0	936	39	21	
4	0	0	0	0	511	514	1	942	39	21	
5	0	0	0	0	504	513	0	940	39	21	
6	0	0	0	0	503	513	0	945	38	21	
7	0	0	0	0	509	513	0	940	39	21	
8	0	0	0	0	507	513	1	932	38	21	
9	0	0	0	0	510	510	0	918	39	21	
10	0	0	0	0	512	511	0	894	39	21	
11	0	0	0	0	512	511	0	880	39	21	
12	0	0	0	0	512	512	1	873	39	21	
13	0	0	0	0	508	510	0	884	39	21	
14	0	0	0	0	512	509	0	884	38	21	
15	0	0	0	0	514	511	0	888	39	21	
0	0	0	0	0	512	512	0	899	38	21	
1	0	0	0	0	511	511	0	904	39	21	
2	0	0	0	0	514	512	0	902	39	21	
3	0	0	0	0	506	512	0	884	39	21	
4	0	0	0	0	511	513	1	876	39	21	
5	0	0	0	0	506	510	0	865	39	21	
6	0	0	0	0	508	510	0	850	38	21	
7	0	0	0	0	508	509	0	847	39	21	
8	0	0	0	0	511	507	0	846	39	21	
9	0	0	0	0	506	510	0	846	39	21	
10	0	0	0	0	514	509	0	846	39	21	
11	0	0	0	0	507	511	0	830	39	21	
12	0	0	0	0	514	510	0	809	39	21	
13	0	0	0	0	507	510	0	790	39	21	
14	0	0	0	0	510	510	0	773	38	21	
15	0	0	0	0	515	511	0	756	39	21	
0	0	0	0	0	516	511	1	739	38	21	
1	0	0	0	0	512	510	0	736	39	21	
2	0	0	0	0	511	510	0	727	39	21	
3	0	0	0	0	504	511	0	708	39	21	
4	0	0	0	0	510	510	0	702	39	21	
5	0	0	0	0	511	508	0	704	39	21	
6	0	0	0	0	511	509	0	722	38	21	
7	0	0	0	0	506	511	0	734	38	21	
8	0	0	0	0	502	509	0	735	38	21	
9	0	0	0	0	507	511	0	735	39	21	
10	0	0	0	0	503	511	0	730	39	21	
11	0	0	0	0	511	511	0	718	39	21	
12	0	0	0	0	515	514	1	699	39	21	
13	0	0	0	0	510	512	0	680	39	21	
14	0	0	0	0	515	512	0	664	38	21	
15	0	0	0	0	512	514	0	656	39	21	
0	0	0	0	0	508	513	0	659	39	21	
1	0	0	0	0	507	512	0	664	39	21	
2	0	0	0	0	516	513	0	675	39	21	
3	0	0	0	0	512	515	0	692	39	21	
4	0	0	0	0	511	516	0	700	39	21	
5	0	0	0	0	515	513	0	703	39	21	
6	0	0	0	0	512	512	0	700	38	21	
7	0	0	0	0	509	513	0	692	39	21	
8	0	0	0	0	509	515	0	686	38	21	
9	0	0	0	0	511	513	0	663	39	21	
10	0	0	0	0	501	514	0	662	39	21	
11	0	0	0	0	508	514	0	667	39	21	
12	0	0	0	0	509	515	1	670	39	21	
13	0	0	0	0	512	514	0	683	39	21	
14	0	0	0	0	515	512	0	689	38	21	
15	0	0	0	0	502	514	0	692	39	21	
0	0	0	0	0	506	514	0	684	39	21	
1	0	0	0	0	512	515	0	686	39	21	
2	0	0	0	0	512	514	0	651	39	21	
3	0	0	0	0	517	515	0	657	39	21	
4	0	0	0	0	509	515	0	671	39	21	
5	0	0	0	0	506	515	0	680	39	21	
6	0	0	0	0	511	516	0	680	38	21	
7	0	0	0	0	517	515	0	681	38	21	
8	0	0	0	0	510	514	0	688	38	21	
9	0	0	0	0	504	514	0	680	39	21	
10	0	0	0	0	505	513	0	655	39	21	
11	0	0	0	0	503	515	0	628	39	21	
12	0	0	0	0	512	512	0	600	39	21	
13	0	0	0	0	515	513	0	592	39	21	
14	0	0	0	0	520	512	0	593	38	21	
15	0	0	0	0	510	512	0	591	39	21	
0	0	0	0	0	510	511	0	597	39	21	
1	0	0	0	0	515	512	0	607	39	21	
2	0	0	0	0	509	512	0	620	39	21	
3	0	0	0	0	512	512	0	638	38	21	
4	0	0	0	0	514	513	1	651	39	21	
5	0	0	0	0	498	512	0	668	38	21	
6	0	0	0	0	506	511	0	690	38	21	
7	0	0	0	0	503	511	0	710	39	21	
8	0	0	0	0	504	513	1	728	38	21	
9	0	0	0	0	505	513	0	743	39	21	
10	0	0	0	0	510	513	0	748	39	21	
11	0	0	0	0	512	515	0	747	39	21	
12	0	0	0	0	514	515	1	747	39	21	
13	0	0	0	0	511	512	0	737	39	21	
14	0	0	0	0	517	514	0	730	38	21	
15	0	0	0	0	510	514	0	726	38	21	
0	0	0	0	0	517	512	0	721	39	21	
1	0	0	0	0	517	513	0	717	39	21	
2	0	0	0	0	508	512	0	705	39	21	
3	0	0	0	0	513	511	0	695	39	21	
4	0	0	0	0	511	513	1	695	39	21	
5	0	0	0	0	505	513	0	702	39	21	
6	0	0	0	0	504	513	0	708	38	21	
7	0	0	0	0	510	512	0	726	38	21	
8	0	0	0	0	511	511	0	736	39	21	
9	0	0	0	0	515	511	0	743	39	21	
10	0	0	0	0	506	513	0	766	39	21	
11	0	0	0	0	512	512	0	778	39	21	
12	0	0	0	0	510	512	1	775	39	21	
13	0	0	0	0	506	511	0	758	39	21	
14	0	0	0	0	508	510	0	732	38	21	
15	0	0	0	0	503	511	0	706	38	21	
0	0	0	0	0	512	513	1	696	38	21	
1	0	0	0	0	508	511	0	702	39	21	
2	0	0	0	0	515	513	0	711	39	21	
3	0	0	0	0	512	513	0	721	39	21	
4	0	0	0	0	510	512	1	726	39	21	
5	0	0	0	0	517	510	0	737	39	21	
6	0	0	0	0	511	510	0	741	38	21	
7	0	0	0	0	509	512	0	743	39	21	
8	0	0	0	0	506	513	1	759	38	21	
9	0	0	0	0	512	511	0	743	39	21	
10	0	0	0	0	508	511	0	736	39	21	
11	0	0	0	0	510	512	0	736	39	21	
12	0	0	0	0	507	512	0	729	39	21	
13	0	0	0	0	518	512	0	720	39	21	
14	0	0	0	0	509	512	0	705	38	21	
15	0	0	0	0	509	512	0	659	39	21	
0	0	0	0	0	506	513	1	618	38	21	
1	0	0	0	0	515	511	0	575	39	21	
2	0	0	0	0	510	514	0	543	39	21	
3	0	0	0	0	508	515	0	533	39	21	
4	0	0	0	0	509	515	1	540	39	21	
5	0	0	0	0	514	512	0	562	38	21	
6	0	0	0	0	516	512	0	576	38	21	
7	0	0	0	0	508	514	0	596	39	21	
8	0	0	0	0	503	512	0	614	39	21	
9	0	0	0	0	507	512	0	612	39	21	
10	0	0	0	0	510	513	0	618	39	21	
11	0	0	0	0	509	512	0	630	39	21	
12	0	0	0	0	508	510	0	632	39	21	
13	0	0	0	0	500	510	0	630	39	21	
14	0	0	0	0	511	511	0	613	38	21	
15	0	0	0	0	513	511	0	600	39	21	
0	0	0	0	0	515	510	0	597	39	21	
1	0	0	0	0	516	510	0	600	39	21	
2	0	0	0	0	511	513	0	595	39	21	
3	0	0	0	0	508	516	0	584	39	21	
4	0	0	0	0	512	515	0	572	39	21	
5	0	0	0	0	514	513	0	566	39	21	
6	0	0	0	0	513	513	0	542	38	21	
7	0	0	0	0	506	513	0	526	39	21	
8	0	0	0	0	509	515	1	504	38	21	
9	0	0	0	0	501	513	0	487	39	21	
10	0	0	0	0	509	511	0	475	39	21	
11	0	0	0	0	514	513	0	476	39	21	
12	0	0	0	0	503	515	0	477	39	21	
13	0	0	0	0	501	512	0	479	39	21	
14	0	0	0	0	508	512	0	481	38	21	
15	0	0	0	0	507	513	0	472	39	21	
0	0	0	0	0	513	512	0	434	38	21	
1	0	0	0	0	516	512	0	397	39	21	
2	0	0	0	0	0	170	0	1018	39	21	
3	0	0	0	0	262	172	0	1017	38	21	
4	0	0	0	0	271	180	0	1017	39	21	
5	0	0	0	0	263	188	0	1018	39	21	
6	0	0	0	0	251	193	0	1017	38	21	
7	0	0	0	0	240	198	0	1017	39	21	
8	0	0	0	0	221	199	0	191	38	21	
9	0	0	0	0	215	200	0	0	39	21	
10	0	0	0	0	220	203	0	0	39	21	
11	0	0	0	0	218	204	0	0	38	21	
12	0	0	0	0	214	204	0	0	39	21	
13	0	0	0	0	925	539	0	0	38	21	
14	0	0	0	0	501	552	0	0	38	21	
15	0	0	0	0	435	544	0	0	38	21	
0	0	0	0	0	442	536	0	0	39	21	
1	0	0	0	0	466	531	0	0	39	21	
2	0	0	0	0	481	527	0	0	39	21	
3	0	0	0	0	489	524	0	0	39	21	
4	0	0	0	0	497	521	0	0	39	21	
5	0	0	0	0	496	519	0	0	39	21	
6	0	0	0	0	502	517	0	0	38	21	
7	0	0	0	0	509	516	0	0	39	21	
8	0	0	0	0	513	516	0	0	38	21	
9	0	0	0	0	509	514	0	0	39	21	
10	0	0	0	0	511	511	0	0	39	21	
11	0	0	0	0	511	510	0	335	39	21	
12	0	0	0	0	511	510	0	547	39	21	
13	0	0	0	0	502	506	0	707	39	21	
14	0	0	0	0	508	506	0	822	38	21	
15	0	0	0	0	511	508	0	903	39	21	
0	0	0	0	0	509	510	0	958	39	21	
1	0	0	0	0	511	510	0	979	38	21	
2	0	0	0	0	514	510	0	1011	39	21	
3	0	0	0	0	511	511	0	1018	39	21	
4	0	0	0	0	511	513	0	1019	39	21	
5	0	0	0	0	511	510	0	1018	39	21	
6	0	0	0	0	521	510	0	1018	38	21	
7	0	0	0	0	511	512	0	1018	38	21	
8	0	0	0	0	512	513	1	1019	38	21	
9	0	0	0	0	514	512	0	1018	39	21	
10	0	0	0	0	511	513	0	1018	39	21	
11	0	0	0	0	512	514	0	1018	39	21	
12	0	0	0	0	503	513	0	1019	39	21	
13	0	0	0	0	513	513	0	1018	39	21	
14	0	0	0	0	507	514	0	1018	38	21	
15	0	0	0	0	512	514	0	1018	39	21	
0	0	0	0	0	504	513	0	1018	38	21	
1	0	0	0	0	508	512	0	1018	39	21	
2	0	0	0	0	516	512	0	1018	39	21	
3	0	0	0	0	509	512	0	1017	39	21	
4	0	0	0	0	518	511	1	1019	39	21	
5	0	0	0	0	510	511	0	1018	38	21	
6	0	0	0	0	512	512	0	1018	38	21	
7	0	0	0	0	511	511	0	1018	38	21	
8	0	0	0	0	510	511	1	1019	38	21	
9	0	0	0	0	514	511	0	1018	39	21	
10	0	0	0	0	503	511	0	1018	39	21	
11	0	0	0	0	508	513	0	1018	39	21	
12	0	0	0	0	512	513	1	1019	39	21	
13	0	0	0	0	513	513	0	993	39	21	
14	0	0	0	0	505	513	0	989	38	21	
15	0	0	0	0	503	513	0	983	39	21	
0	0	0	0	0	509	512	1	975	38	21	
1	0	0	0	0	504	510	0	957	39	21	
2	0	0	0	0	516	512	0	931	39	21	
3	0	0	0	0	514	512	0	919	39	21	
4	0	0	0	0	512	512	0	927	39	21	
5	0	0	0	0	515	512	0	956	39	21	
6	0	0	0	0	514	513	0	963	38	21	
7	0	0	0	0	505	515	0	961	39	21	
8	0	0	0	0	511	513	0	961	38	21	
9	0	0	0	0	506	514	0	958	39	21	
10	0	0	0	0	513	514	0	969	39	21	
11	0	0	0	0	510	513	0	985	39	21	
12	0	0	0	0	503	511	0	989	39	21	
13	0	0	0	0	507	512	0	978	39	21	
14	0	0	0	0	513	513	0	960	38	21	
15	0	0	0	0	514	512	0	960	38	21	
0	0	0	0	0	508	513	1	945	38	21	
1	0	0	0	0	499	512	0	931	39	21	
2	0	0	0	0	506	513	0	901	39	21	
3	0	0	0	0	507	512	0	880	39	21	
4	0	0	0	0	509	511	0	860	39	21	
5	0	0	0	0	519	509	0	846	39	21	
6	0	0	0	0	514	510	0	842	38	21	
7	0	0	0	0	514	511	0	833	39	21	
8	0	0	0	0	511	512	0	825	39	21	
9	0	0	0	0	506	513	0	823	39	21	
10	0	0	0	0	516	511	0	820	39	21	
11	0	0	0	0	516	510	0	831	39	21	
12	0	0	0	0	507	511	1	832	39	21	
13	0	0	0	0	505	510	0	829	39	21	
14	0	0	0	0	512	511	0	817	38	21	
15	0	0	0	0	505	512	0	810	38	21	
0	0	0	0	0	510	512	0	819	38	21	
1	0	0	0	0	511	511	0	808	39	21	
2	0	0	0	0	511	512	0	787	39	21	
3	0	0	0	0	510	512	0	753	39	21	
4	0	0	0	0	509	511	1	716	39	21	
5	0	0	0	0	508	512	0	692	39	21	
6	0	0	0	0	515	512	0	680	38	21	
7	0	0	0	0	511	512	0	676	39	21	
8	0	0	0	0	511	510	0	687	39	21	
9	0	0	0	0	499	510	0	701	39	21	
10	0	0	0	0	515	510	0	708	39	21	
11	0	0	0	0	512	511	0	715	39	21	
12	0	0	0	0	501	511	0	721	39	21	
13	0	0	0	0	505	512	0	731	39	21	
14	0	0	0	0	515	513	0	737	38	21	
15	0	0	0	0	509	515	0	751	38	21	
0	0	0	0	0	503	513	0	771	38	21	
1	0	0	0	0	507	512	0	762	39	21	
2	0	0	0	0	510	510	0	754	39	21	
3	0	0	0	0	507	509	0	751	39	21	
4	0	0	0	0	518	508	0	747	39	21	
5	0	0	0	0	512	508	0	728	39	21	
6	0	0	0	0	512	508	0	703	38	21	
7	0	0	0	0	510	509	0	691	38	21	
8	0	0	0	0	515	510	1	679	38	21	
9	0	0	0	0	511	509	0	675	39	21	
10	0	0	0	0	507	509	0	681	39	21	
11	0	0	0	0	508	511	0	700	39	21	
12	0	0	0	0	514	510	0	726	39	21	
13	0	0	0	0	501	513	0	742	39	21	
14	0	0	0	0	513	513	0	759	38	21	
15	0	0	0	0	508	512	0	782	39	21	
0	0	0	0	0	511	512	0	795	39	21	
1	0	0	0	0	507	513	0	784	39	21	
2	0	0	0	0	507	510	0	775	39	21	
3	0	0	0	0	508	511	0	788	39	21	
4	0	0	0	0	511	510	0	801	39	21	
5	0	0	0	0	501	511	0	800	39	21	
6	0	0	0	0	515	511	0	792	38	21	
7	0	0	0	0	515	512	0	783	38	21	
8	0	0	0	0	512	511	0	783	39	21	
9	0	0	0	0	512	512	0	786	39	21	
10	0	0	0	0	515	512	0	781	39	21	
11	0	0	0	0	511	513	0	783	39	21	
12	0	0	0	0	514	513	1	772	39	21	
13	0	0	0	0	503	511	0	759	39	21	
14	0	0	0	0	515	513	0	761	38	21	
15	0	0	0	0	507	514	0	753	38	21	
0	0	0	0	0	506	514	0	720	38	21	
1	0	0	0	0	504	513	0	707	39	21	
2	0	0	0	0	511	512	0	696	39	21	
3	0	0	0	0	506	512	0	688	39	21	
4	0	0	0	0	509	511	1	676	39	21	
5	0	0	0	0	510	509	0	659	39	21	
6	0	0	0	0	513	509	0	648	38	21	
7	0	0	0	0	510	511	0	647	39	21	
8	0	0	0	0	517	511	1	649	38	21	
9	0	0	0	0	509	509	0	655	39	21	
10	0	0	0	0	511	509	0	655	39	21	
11	0	0	0	0	512	510	0	671	39	21	
12	0	0	0	0	518	510	0	694	39	21	
13	0	0	0	0	513	508	0	717	39	21	
14	0	0	0	0	508	511	0	740	38	21	
15	0	0	0	0	506	512	0	758	38	21	
0	0	0	0	0	507	513	1	781	38	21	
1	0	0	0	0	504	511	0	793	39	21	
2	0	0	0	0	506	510	0	785	39	21	
3	0	0	0	0	507	513	0	781	38	21	
4	0	0	0	0	511	514	1	765	39	21	
5	0	0	0	0	505	515	0	752	39	21	
6	0	0	0	0	507	514	0	739	38	21	
7	0	0	0	0	514	513	0	725	39	21	
8	0	0	0	0	511	513	1	716	38	21	
9	0	0	0	0	509	511	0	696	39	21	
10	0	0	0	0	514	511	0	671	39	21	
11	0	0	0	0	512	511	0	654	39	21	
12	0	0	0	0	507	512	0	643	39	21	
13	0	0	0	0	511	514	0	624	39	21	
14	0	0	0	0	510	515	0	627	38	21	
15	0	0	0	0	512	515	0	632	38	21	
0	0	0	0	0	510	514	0	624	38	21	
1	0	0	0	0	507	512	0	611	39	21	
2	0	0	0	0	512	512	0	600	39	21	
3	0	0	0	0	505	512	0	599	39	21	
4	0	0	0	0	503	513	1	598	39	21	
5	0	0	0	0	516	512	0	595	39	21	
6	0	0	0	0	511	511	0	587	38	21	
7	0	0	0	0	512	511	0	585	39	21	
8	0	0	0	0	515	512	0	588	39	21	
9	0	0	0	0	507	511	0	606	39	21	
10	0	0	0	0	513	512	0	624	39	21	
11	0	0	0	0	515	513	0	617	39	21	
12	0	0	0	0	511	515	0	596	39	21	
13	0	0	0	0	514	514	0	584	39	21	
14	0	0	0	0	506	515	0	584	38	21	
15	0	0	0	0	505	515	0	601	39	21	
0	0	0	0	0	506	514	0	625	39	21	
1	0	0	0	0	508	513	0	643	39	21	
2	0	0	0	0	507	513	0	663	39	21	
3	0	0	0	0	506	512	0	678	39	21	
4	0	0	0	0	513	512	0	675	39	21	
5	0	0	0	0	508	512	0	654	39	21	
6	0	0	0	0	515	513	0	629	38	21	
7	0	0	0	0	506	510	0	607	39	21	
8	0	0	0	0	512	510	1	587	38	21	
9	0	0	0	0	517	510	0	583	39	21	
10	0	0	0	0	502	510	0	587	39	21	
11	0	0	0	0	509	511	0	596	39	21	
12	0	0	0	0	514	510	0	623	39	21	
13	0	0	0	0	509	511	0	649	39	21	
14	0	0	0	0	513	514	0	673	38	21	
15	0	0	0	0	508	515	0	702	39	21	
0	0	0	0	0	517	515	0	727	39	21	
1	0	0	0	0	505	515	0	748	39	21	
2	0	0	0	0	513	515	0	732	39	21	
3	0	0	0	0	508	515	0	720	39	21	
4	0	0	0	0	513	511	0	716	39	21	
5	0	0	0	0	502	513	0	707	39	21	
6	0	0	0	0	502	513	0	685	38	21	
7	0	0	0	0	505	512	0	673	39	21	
8	0	0	0	0	511	513	0	660	39	21	
9	0	0	0	0	510	512	0	656	39	21	
10	0	0	0	0	509	513	0	668	39	21	
11	0	0	0	0	515	514	0	690	38	21	
12	0	0	0	0	510	514	1	700	39	21	
13	0	0	0	0	507	513	0	691	39	21	
14	0	0	0	0	508	512	0	689	38	21	
15	0	0	0	0	508	512	0	701	39	21	
0	0	0	0	0	514	513	1	706	38	21	
1	0	0	0	0	510	513	0	703	39	21	
2	0	0	0	0	512	514	0	696	39	21	
3	0	0	0	0	507	515	0	699	39	21	
4	0	0	0	0	511	513	0	683	39	21	
5	0	0	0	0	510	512	0	657	39	21	
6	0	0	0	0	500	513	0	630	38	21	
7	0	0	0	0	510	511	0	608	39	21	
8	0	0	0	0	508	512	0	591	38	21	
9	0	0	0	0	513	511	0	574	39	21	
10	0	0	0	0	510	509	0	558	39	21	
11	0	0	0	0	514	510	0	552	39	21	
12	0	0	0	0	510	510	0	531	39	21	
13	0	0	0	0	514	510	0	519	39	21	
14	0	0	0	0	514	511	0	534	38	21	
15	0	0	0	0	507	511	0	546	39	21	
0	0	0	0	0	505	511	0	559	39	21	
1	0	0	0	0	516	511	0	576	39	21	
2	0	0	0	0	511	510	0	585	39	21	
3	0	0	0	0	513	511	0	594	39	21	
4	0	0	0	0	511	510	0	587	39	21	
5	0	0	0	0	506	510	0	573	39	21	
6	0	0	0	0	504	510	0	545	38	21	
7	0	0	0	0	506	512	0	522	38	21	
8	0	0	0	0	514	511	0	501	39	21	
9	0	0	0	0	510	511	0	480	39	21	
10	0	0	0	0	510	510	0	460	39	21	
11	0	0	0	0	506	509	0	455	39	21	
12	0	0	0	0	512	509	1	453	39	21	
13	0	0	0	0	505	510	0	473	39	21	
14	0	0	0	0	513	508	0	458	38	21	
15	0	0	0	0	513	510	0	454	38	21	
0	0	0	0	0	516	510	0	459	38	21	
1	0	0	0	0	518	508	0	478	39	21	
2	0	0	0	0	0	167	0	1017	39	21	
3	0	0	0	0	249	171	0	1017	38	21	
4	0	0	0	0	272	179	0	1017	39	21	
5	0	0	0	0	256	185	0	1017	39	21	
6	0	0	0	0	246	191	0	1017	38	21	
