# OpenSignals Text File Format. Version 1
# {"84:BA:20:AE:BF:DA": {"position": 0, "device": "bitalino_rev", "device name": "84:BA:20:AE:BF:DA", "device connection": "BTH84:BA:20:AE:BF:DA", "sampling rate": 1000, "resolution": [4, 1, 1, 1, 1, 10, 10, 10, 10, 6, 6], "firmware version": 1282, "comments": "", "keywords": "", "mode": 0, "sync interval": 2, "date": "2025-11-3", "time": "13:22:7.976", "channels": [1, 2, 3, 4, 5, 6], "sensor": ["RAW", "RAW", "RAW", "RAW", "RAW", "RAW"], "label": ["A1", "A2", "A3", "A4", "A5", "A6"], "column": ["nSeq", "I1", "I2", "O1", "O2", "A1", "A2", "A3", "A4", "A5", "A6"], "special": [{}, {}, {}, {}, {}, {}], "digital IO": [0, 0, 1, 1], "convertedValues": 0}}
# EndOfHeader
0	0	0	0	0	509	513	0	619	39	2	
1	0	0	0	0	512	512	0	609	39	2	
2	0	0	0	0	508	513	0	596	39	2	
3	0	0	0	0	507	512	0	588	39	2	
4	0	0	0	0	505	512	1	584	39	2	
5	0	0	0	0	507	513	0	582	39	2	
6	0	0	0	0	516	514	0	587	39	2	
7	0	0	0	0	513	515	0	593	39	2	
8	0	0	0	0	515	514	0	589	39	2	
9	0	0	0	0	515	512	0	574	39	2	
10	0	0	0	0	512	515	0	555	39	2	
11	0	0	0	0	503	514	0	530	39	2	
12	0	0	0	0	513	513	0	509	39	2	
13	0	0	0	0	509	511	0	513	39	2	
14	0	0	0	0	505	511	0	511	39	2	
15	0	0	0	0	510	512	0	519	39	2	
0	0	0	0	0	507	512	1	527	38	2	
1	0	0	0	0	511	511	0	537	39	2	
2	0	0	0	0	501	510	0	546	39	2	
3	0	0	0	0	513	511	0	546	39	2	
4	0	0	0	0	511	510	1	539	38	2	
5	0	0	0	0	516	510	0	539	39	2	
6	0	0	0	0	512	511	0	536	39	2	
7	0	0	0	0	512	512	0	533	39	2	
8	0	0	0	0	512	514	1	520	39	2	
9	0	0	0	0	516	513	0	503	39	2	
10	0	0	0	0	510	513	0	486	39	2	
11	0	0	0	0	515	514	0	471	39	2	
12	0	0	0	0	516	514	1	456	38	2	
13	0	0	0	0	504	514	0	450	39	2	
14	0	0	0	0	511	514	0	451	39	2	
15	0	0	0	0	507	513	0	467	39	2	
0	0	0	0	0	510	513	0	470	39	2	
1	0	0	0	0	506	513	0	479	39	2	
2	0	0	0	0	511	513	0	488	39	2	
3	0	0	0	0	511	513	0	502	39	2	
4	0	0	0	0	508	514	1	522	39	2	
5	0	0	0	0	507	512	0	535	39	2	
6	0	0	0	0	507	510	0	537	39	2	
7	0	0	0	0	508	510	0	532	39	2	
8	0	0	0	0	508	508	1	519	39	2	
9	0	0	0	0	506	510	0	509	39	2	
10	0	0	0	0	518	511	0	501	39	2	
11	0	0	0	0	516	512	0	491	39	2	
12	0	0	0	0	510	511	0	473	38	2	
13	0	0	0	0	512	512	0	461	39	2	
14	0	0	0	0	515	511	0	457	38	2	
15	0	0	0	0	511	511	0	465	38	2	
0	0	0	0	0	514	512	1	480	38	2	
1	0	0	0	0	509	512	0	489	39	2	
2	0	0	0	0	511	512	0	499	39	2	
3	0	0	0	0	508	513	0	512	39	2	
4	0	0	0	0	518	512	0	526	39	2	
5	0	0	0	0	504	512	0	525	39	2	
6	0	0	0	0	507	512	0	512	39	2	
7	0	0	0	0	511	513	0	501	39	2	
8	0	0	0	0	503	512	1	501	39	2	
9	0	0	0	0	509	513	0	507	39	2	
10	0	0	0	0	511	514	0	513	39	2	
11	0	0	0	0	516	513	0	527	39	2	
12	0	0	0	0	517	515	1	537	39	2	
13	0	0	0	0	512	514	0	541	39	2	
14	0	0	0	0	513	513	0	547	39	2	
15	0	0	0	0	518	514	0	550	39	2	
0	0	0	0	0	512	514	1	543	39	2	
1	0	0	0	0	507	513	0	536	39	2	
2	0	0	0	0	509	513	0	532	39	2	
3	0	0	0	0	512	512	0	523	39	2	
4	0	0	0	0	508	513	1	527	38	2	
5	0	0	0	0	509	513	0	543	39	2	
6	0	0	0	0	500	510	0	550	39	2	
7	0	0	0	0	507	512	0	555	39	2	
8	0	0	0	0	513	510	0	547	39	2	
9	0	0	0	0	510	512	0	540	39	2	
10	0	0	0	0	513	514	0	537	39	2	
11	0	0	0	0	513	513	0	541	38	2	
12	0	0	0	0	510	513	1	550	39	2	
13	0	0	0	0	517	512	0	556	39	2	
14	0	0	0	0	512	512	0	551	39	2	
15	0	0	0	0	509	513	0	541	39	2	
0	0	0	0	0	508	512	1	538	39	2	
1	0	0	0	0	511	512	0	538	39	2	
2	0	0	0	0	508	513	0	541	39	2	
3	0	0	0	0	507	514	0	553	39	2	
4	0	0	0	0	507	515	0	573	39	2	
5	0	0	0	0	504	516	0	590	39	2	
6	0	0	0	0	513	515	0	604	39	2	
7	0	0	0	0	515	514	0	621	39	2	
8	0	0	0	0	513	511	0	638	39	2	
9	0	0	0	0	509	511	0	644	39	2	
10	0	0	0	0	510	513	0	643	39	2	
11	0	0	0	0	509	514	0	627	38	2	
12	0	0	0	0	515	515	1	608	39	2	
13	0	0	0	0	511	515	0	605	39	2	
14	0	0	0	0	514	515	0	602	39	2	
15	0	0	0	0	511	514	0	599	39	2	
0	0	0	0	0	508	512	0	591	39	2	
1	0	0	0	0	511	512	0	580	39	2	
2	0	0	0	0	514	513	0	573	39	2	
3	0	0	0	0	510	514	0	569	38	2	
4	0	0	0	0	507	515	1	568	39	2	
5	0	0	0	0	508	513	0	576	39	2	
6	0	0	0	0	510	514	0	587	39	2	
7	0	0	0	0	508	515	0	592	39	2	
8	0	0	0	0	508	516	0	591	38	2	
9	0	0	0	0	505	515	0	587	39	2	
10	0	0	0	0	513	515	0	586	39	2	
11	0	0	0	0	516	513	0	581	39	2	
12	0	0	0	0	513	515	0	573	38	2	
13	0	0	0	0	509	513	0	565	39	2	
14	0	0	0	0	515	515	0	568	38	2	
15	0	0	0	0	516	515	0	576	39	2	
0	0	0	0	0	510	514	0	591	39	2	
1	0	0	0	0	507	515	0	607	39	2	
2	0	0	0	0	510	515	0	621	39	2	
3	0	0	0	0	508	517	0	637	39	2	
4	0	0	0	0	510	515	1	652	39	2	
5	0	0	0	0	510	512	0	660	39	2	
6	0	0	0	0	510	514	0	666	39	2	
7	0	0	0	0	509	514	0	663	39	2	
8	0	0	0	0	509	512	1	652	39	2	
9	0	0	0	0	510	511	0	653	39	2	
10	0	0	0	0	510	511	0	659	39	2	
11	0	0	0	0	515	512	0	659	39	2	
12	0	0	0	0	510	512	0	647	39	2	
13	0	0	0	0	512	512	0	643	39	2	
14	0	0	0	0	509	513	0	638	39	2	
15	0	0	0	0	510	514	0	643	39	2	
0	0	0	0	0	513	515	1	654	39	2	
1	0	0	0	0	507	513	0	655	39	2	
2	0	0	0	0	510	513	0	650	39	2	
3	0	0	0	0	508	514	0	638	39	2	
4	0	0	0	0	505	514	1	627	38	2	
5	0	0	0	0	508	512	0	616	39	2	
6	0	0	0	0	508	513	0	607	39	2	
7	0	0	0	0	512	512	0	597	39	2	
8	0	0	0	0	509	511	0	589	39	2	
9	0	0	0	0	509	512	0	590	39	2	
10	0	0	0	0	508	513	0	590	39	2	
11	0	0	0	0	512	515	0	588	39	2	
12	0	0	0	0	511	514	1	587	39	2	
13	0	0	0	0	515	512	0	584	39	2	
14	0	0	0	0	512	513	0	584	39	2	
15	0	0	0	0	515	515	0	587	39	2	
0	0	0	0	0	515	512	0	591	39	2	
1	0	0	0	0	507	511	0	586	39	2	
2	0	0	0	0	511	511	0	583	39	2	
3	0	0	0	0	519	512	0	583	39	2	
4	0	0	0	0	506	512	0	585	38	2	
5	0	0	0	0	510	512	0	582	39	2	
6	0	0	0	0	513	514	0	570	39	2	
7	0	0	0	0	511	514	0	556	38	2	
8	0	0	0	0	505	512	1	542	39	2	
9	0	0	0	0	502	513	0	544	39	2	
10	0	0	0	0	501	512	0	541	39	2	
11	0	0	0	0	508	513	0	525	38	2	
12	0	0	0	0	515	512	1	507	38	2	
13	0	0	0	0	510	512	0	493	39	2	
14	0	0	0	0	513	512	0	483	39	2	
15	0	0	0	0	517	511	0	479	39	2	
0	0	0	0	0	516	512	1	479	39	2	
1	0	0	0	0	508	511	0	482	39	2	
2	0	0	0	0	513	512	0	487	39	2	
3	0	0	0	0	508	512	0	484	39	2	
4	0	0	0	0	508	511	1	475	38	2	
5	0	0	0	0	511	512	0	461	39	2	
6	0	0	0	0	510	511	0	455	39	2	
7	0	0	0	0	501	512	0	455	39	2	
8	0	0	0	0	506	508	1	460	39	2	
9	0	0	0	0	508	508	0	463	39	2	
10	0	0	0	0	514	509	0	469	39	2	
11	0	0	0	0	505	509	0	466	39	2	
12	0	0	0	0	514	508	0	470	39	2	
13	0	0	0	0	507	508	0	467	39	2	
14	0	0	0	0	509	509	0	466	39	2	
15	0	0	0	0	510	509	0	464	39	2	
0	0	0	0	0	525	511	1	456	39	2	
1	0	0	0	0	515	511	0	456	39	2	
2	0	0	0	0	513	511	0	455	39	2	
3	0	0	0	0	501	512	0	449	39	2	
4	0	0	0	0	509	511	0	443	39	2	
5	0	0	0	0	512	511	0	441	39	2	
6	0	0	0	0	511	511	0	441	39	2	
7	0	0	0	0	509	513	0	438	39	2	
8	0	0	0	0	506	517	1	430	39	2	
9	0	0	0	0	505	516	0	426	39	2	
10	0	0	0	0	506	515	0	426	39	2	
11	0	0	0	0	512	513	0	423	39	2	
12	0	0	0	0	515	509	0	423	38	2	
13	0	0	0	0	511	508	0	423	39	2	
14	0	0	0	0	512	508	0	433	39	2	
15	0	0	0	0	515	510	0	444	39	2	
0	0	0	0	0	504	508	1	452	39	2	
1	0	0	0	0	512	508	0	460	39	2	
2	0	0	0	0	519	509	0	462	39	2	
3	0	0	0	0	512	510	0	453	39	2	
4	0	0	0	0	514	508	1	446	39	2	
5	0	0	0	0	506	507	0	446	39	2	
6	0	0	0	0	508	508	0	443	39	2	
7	0	0	0	0	506	512	0	432	39	2	
8	0	0	0	0	508	512	0	415	39	2	
9	0	0	0	0	509	511	0	410	39	2	
10	0	0	0	0	511	513	0	408	39	2	
11	0	0	0	0	508	513	0	412	39	2	
12	0	0	0	0	509	511	0	425	38	2	
13	0	0	0	0	509	511	0	438	39	2	
14	0	0	0	0	510	510	0	441	39	2	
15	0	0	0	0	504	511	0	432	39	2	
0	0	0	0	0	511	512	1	424	39	2	
1	0	0	0	0	515	511	0	427	39	2	
2	0	0	0	0	518	512	0	429	39	2	
3	0	0	0	0	516	513	0	417	39	2	
4	0	0	0	0	510	513	0	399	38	2	
5	0	0	0	0	505	512	0	385	39	2	
6	0	0	0	0	511	511	0	388	39	2	
7	0	0	0	0	515	510	0	403	39	2	
8	0	0	0	0	508	509	0	414	39	2	
9	0	0	0	0	513	507	0	410	39	2	
10	0	0	0	0	508	508	0	405	39	2	
11	0	0	0	0	505	508	0	403	38	2	
12	0	0	0	0	505	507	1	392	39	2	
13	0	0	0	0	508	507	0	388	39	2	
14	0	0	0	0	512	508	0	391	39	2	
15	0	0	0	0	508	508	0	400	39	2	
0	0	0	0	0	505	510	0	407	39	2	
1	0	0	0	0	514	510	0	425	39	2	
2	0	0	0	0	508	511	0	429	39	2	
3	0	0	0	0	513	513	0	435	39	2	
4	0	0	0	0	512	512	1	439	39	2	
5	0	0	0	0	510	512	0	437	39	2	
6	0	0	0	0	515	511	0	432	39	2	
7	0	0	0	0	512	512	0	432	39	2	
8	0	0	0	0	509	513	1	429	39	2	
9	0	0	0	0	507	514	0	427	39	2	
10	0	0	0	0	499	512	0	435	39	2	
11	0	0	0	0	505	513	0	442	39	2	
12	0	0	0	0	516	513	1	443	39	2	
13	0	0	0	0	512	512	0	440	39	2	
14	0	0	0	0	512	511	0	446	39	2	
15	0	0	0	0	509	512	0	425	39	2	
0	0	0	0	0	515	511	1	415	39	2	
1	0	0	0	0	517	510	0	414	39	2	
2	0	0	0	0	511	510	0	412	39	2	
3	0	0	0	0	514	512	0	414	38	2	
4	0	0	0	0	515	512	1	423	39	2	
5	0	0	0	0	509	511	0	450	39	2	
6	0	0	0	0	509	511	0	459	39	2	
7	0	0	0	0	510	512	0	472	39	2	
8	0	0	0	0	506	511	0	468	39	2	
9	0	0	0	0	508	511	0	462	39	2	
10	0	0	0	0	513	510	0	460	39	2	
11	0	0	0	0	513	511	0	463	38	2	
12	0	0	0	0	508	510	0	473	39	2	
13	0	0	0	0	507	510	0	486	39	2	
14	0	0	0	0	505	511	0	489	39	2	
15	0	0	0	0	507	511	0	482	39	2	
0	0	0	0	0	508	511	1	475	39	2	
1	0	0	0	0	510	512	0	466	39	2	
2	0	0	0	0	517	513	0	457	39	2	
3	0	0	0	0	515	515	0	455	38	2	
4	0	0	0	0	515	514	0	455	39	2	
5	0	0	0	0	518	513	0	452	39	2	
6	0	0	0	0	513	515	0	451	39	2	
7	0	0	0	0	518	514	0	452	39	2	
8	0	0	0	0	505	514	1	457	39	2	
9	0	0	0	0	510	512	0	472	39	2	
10	0	0	0	0	503	514	0	487	39	2	
11	0	0	0	0	505	513	0	492	39	2	
12	0	0	0	0	507	513	0	489	39	2	
13	0	0	0	0	512	513	0	495	39	2	
14	0	0	0	0	509	511	0	496	39	2	
15	0	0	0	0	505	512	0	499	38	2	
0	0	0	0	0	512	512	0	499	39	2	
1	0	0	0	0	511	511	0	491	39	2	
2	0	0	0	0	511	513	0	477	39	2	
3	0	0	0	0	518	512	0	473	39	2	
4	0	0	0	0	512	513	1	468	38	2	
5	0	0	0	0	508	512	0	468	39	2	
6	0	0	0	0	510	512	0	451	38	2	
7	0	0	0	0	517	513	0	447	39	2	
8	0	0	0	0	511	512	0	451	39	2	
9	0	0	0	0	512	513	0	463	39	2	
10	0	0	0	0	502	512	0	472	39	2	
11	0	0	0	0	507	512	0	484	39	2	
12	0	0	0	0	510	512	1	491	39	2	
13	0	0	0	0	508	512	0	497	39	2	
14	0	0	0	0	502	513	0	507	39	2	
15	0	0	0	0	515	512	0	513	39	2	
0	0	0	0	0	511	512	1	508	39	2	
1	0	0	0	0	507	511	0	506	39	2	
2	0	0	0	0	509	510	0	510	39	2	
3	0	0	0	0	521	510	0	513	39	2	
4	0	0	0	0	507	511	1	527	39	2	
5	0	0	0	0	513	510	0	511	39	2	
6	0	0	0	0	510	511	0	509	39	2	
7	0	0	0	0	508	511	0	507	39	2	
8	0	0	0	0	513	511	1	500	39	2	
9	0	0	0	0	506	511	0	493	39	2	
10	0	0	0	0	505	511	0	485	39	2	
11	0	0	0	0	510	512	0	485	39	2	
12	0	0	0	0	508	510	0	495	39	2	
13	0	0	0	0	512	510	0	504	39	2	
14	0	0	0	0	504	510	0	508	39	2	
15	0	0	0	0	514	511	0	512	39	2	
0	0	0	0	0	506	512	0	512	39	2	
1	0	0	0	0	508	510	0	508	39	2	
2	0	0	0	0	512	509	0	503	39	2	
3	0	0	0	0	516	510	0	490	39	2	
4	0	0	0	0	516	511	1	480	39	2	
5	0	0	0	0	519	509	0	484	39	2	
6	0	0	0	0	512	509	0	490	39	2	
7	0	0	0	0	512	511	0	490	39	2	
8	0	0	0	0	510	512	1	483	39	2	
9	0	0	0	0	513	510	0	480	39	2	
10	0	0	0	0	505	511	0	479	39	2	
11	0	0	0	0	516	512	0	479	39	2	
12	0	0	0	0	508	512	0	472	38	2	
13	0	0	0	0	507	512	0	472	39	2	
14	0	0	0	0	504	511	0	479	39	2	
15	0	0	0	0	505	512	0	490	39	2	
0	0	0	0	0	508	511	1	496	39	2	
1	0	0	0	0	505	511	0	490	39	2	
2	0	0	0	0	515	511	0	487	39	2	
3	0	0	0	0	509	511	0	492	38	2	
4	0	0	0	0	510	510	1	500	39	2	
5	0	0	0	0	511	509	0	504	39	2	
6	0	0	0	0	512	509	0	505	39	2	
7	0	0	0	0	515	511	0	506	39	2	
8	0	0	0	0	511	510	1	516	39	2	
9	0	0	0	0	511	508	0	524	39	2	
10	0	0	0	0	509	510	0	536	39	2	
11	0	0	0	0	511	513	0	531	39	2	
12	0	0	0	0	507	514	1	523	39	2	
13	0	0	0	0	508	513	0	522	39	2	
14	0	0	0	0	504	513	0	520	39	2	
15	0	0	0	0	510	515	0	524	39	2	
0	0	0	0	0	507	513	1	518	39	2	
1	0	0	0	0	516	511	0	517	39	2	
2	0	0	0	0	512	511	0	508	39	2	
3	0	0	0	0	509	512	0	507	39	2	
4	0	0	0	0	507	512	1	504	39	2	
5	0	0	0	0	515	511	0	511	39	2	
6	0	0	0	0	512	511	0	519	39	2	
7	0	0	0	0	513	514	0	532	39	2	
8	0	0	0	0	513	515	1	545	39	2	
9	0	0	0	0	512	518	0	553	39	2	
10	0	0	0	0	511	518	0	559	39	2	
11	0	0	0	0	510	518	0	556	39	2	
12	0	0	0	0	516	516	0	551	38	2	
13	0	0	0	0	513	515	0	540	39	2	
14	0	0	0	0	504	514	0	525	39	2	
15	0	0	0	0	505	514	0	516	39	2	
0	0	0	0	0	506	512	0	510	39	2	
1	0	0	0	0	508	512	0	517	39	2	
2	0	0	0	0	507	512	0	527	39	2	
3	0	0	0	0	509	512	0	538	39	2	
4	0	0	0	0	508	512	1	537	39	2	
5	0	0	0	0	510	510	0	523	39	2	
6	0	0	0	0	513	510	0	507	39	2	
7	0	0	0	0	517	511	0	502	39	2	
8	0	0	0	0	515	512	1	479	39	2	
9	0	0	0	0	513	512	0	471	39	2	
10	0	0	0	0	514	512	0	465	39	2	
11	0	0	0	0	511	512	0	468	39	2	
12	0	0	0	0	512	511	0	478	39	2	
13	0	0	0	0	508	511	0	507	39	2	
14	0	0	0	0	514	513	0	510	39	2	
15	0	0	0	0	509	512	0	521	39	2	
0	0	0	0	0	508	511	0	527	39	2	
1	0	0	0	0	505	510	0	534	39	2	
2	0	0	0	0	508	511	0	539	39	2	
3	0	0	0	0	506	510	0	543	39	2	
4	0	0	0	0	512	509	0	544	38	2	
5	0	0	0	0	512	508	0	539	39	2	
6	0	0	0	0	507	507	0	535	39	2	
7	0	0	0	0	511	508	0	537	39	2	
8	0	0	0	0	515	506	1	549	39	2	
9	0	0	0	0	515	509	0	561	39	2	
10	0	0	0	0	510	510	0	556	39	2	
11	0	0	0	0	511	510	0	551	39	2	
12	0	0	0	0	510	510	0	545	38	2	
13	0	0	0	0	508	512	0	534	39	2	
14	0	0	0	0	511	511	0	528	39	2	
15	0	0	0	0	508	512	0	525	39	2	
0	0	0	0	0	513	511	0	512	39	2	
1	0	0	0	0	510	513	0	505	39	2	
2	0	0	0	0	505	514	0	504	39	2	
3	0	0	0	0	501	515	0	505	39	2	
4	0	0	0	0	504	514	1	517	39	2	
5	0	0	0	0	516	513	0	528	39	2	
6	0	0	0	0	514	515	0	536	39	2	
7	0	0	0	0	513	515	0	540	38	2	
8	0	0	0	0	515	514	0	543	39	2	
9	0	0	0	0	511	515	0	538	39	2	
10	0	0	0	0	513	515	0	529	39	2	
11	0	0	0	0	518	517	0	518	39	2	
12	0	0	0	0	518	516	1	508	38	2	
13	0	0	0	0	513	517	0	502	39	2	
14	0	0	0	0	506	516	0	499	39	2	
15	0	0	0	0	506	514	0	508	39	2	
0	0	0	0	0	510	511	1	530	39	2	
1	0	0	0	0	504	512	0	556	39	2	
2	0	0	0	0	503	510	0	578	39	2	
3	0	0	0	0	508	510	0	582	39	2	
4	0	0	0	0	516	509	0	576	39	2	
5	0	0	0	0	503	510	0	563	39	2	
6	0	0	0	0	504	511	0	549	39	2	
7	0	0	0	0	516	512	0	550	39	2	
8	0	0	0	0	516	512	0	559	39	2	
9	0	0	0	0	511	513	0	575	39	2	
10	0	0	0	0	518	515	0	580	39	2	
11	0	0	0	0	510	516	0	589	39	2	
12	0	0	0	0	505	514	1	586	39	2	
13	0	0	0	0	511	513	0	578	39	2	
14	0	0	0	0	508	511	0	568	39	2	
15	0	0	0	0	513	511	0	555	39	2	
0	0	0	0	0	505	511	1	539	39	2	
1	0	0	0	0	501	511	0	529	39	2	
2	0	0	0	0	512	512	0	522	39	2	
3	0	0	0	0	513	513	0	519	39	2	
4	0	0	0	0	519	513	0	512	38	2	
5	0	0	0	0	510	512	0	502	39	2	
6	0	0	0	0	511	512	0	499	39	2	
7	0	0	0	0	504	514	0	499	39	2	
8	0	0	0	0	508	515	0	498	39	2	
9	0	0	0	0	511	513	0	507	39	2	
10	0	0	0	0	513	515	0	518	39	2	
11	0	0	0	0	512	517	0	515	39	2	
12	0	0	0	0	516	515	0	504	39	2	
13	0	0	0	0	513	516	0	499	39	2	
14	0	0	0	0	508	515	0	496	39	2	
15	0	0	0	0	507	516	0	494	39	2	
0	0	0	0	0	505	516	1	497	39	2	
1	0	0	0	0	509	514	0	510	39	2	
2	0	0	0	0	511	514	0	530	39	2	
3	0	0	0	0	512	513	0	551	39	2	
4	0	0	0	0	507	514	0	563	38	2	
5	0	0	0	0	508	512	0	568	39	2	
6	0	0	0	0	504	513	0	562	39	2	
7	0	0	0	0	510	513	0	555	39	2	
8	0	0	0	0	522	515	0	553	39	2	
9	0	0	0	0	510	515	0	559	39	2	
10	0	0	0	0	516	515	0	561	39	2	
11	0	0	0	0	511	514	0	554	39	2	
12	0	0	0	0	512	514	0	542	39	2	
13	0	0	0	0	507	513	0	528	39	2	
14	0	0	0	0	503	513	0	516	39	2	
15	0	0	0	0	512	513	0	504	39	2	
0	0	0	0	0	507	514	1	496	39	2	
1	0	0	0	0	505	514	0	489	39	2	
2	0	0	0	0	506	515	0	479	39	2	
3	0	0	0	0	497	515	0	472	38	2	
4	0	0	0	0	510	512	0	466	38	2	
5	0	0	0	0	506	512	0	457	39	2	
6	0	0	0	0	514	513	0	452	39	2	
7	0	0	0	0	510	512	0	448	38	2	
8	0	0	0	0	514	512	1	447	39	2	
9	0	0	0	0	517	511	0	449	39	2	
10	0	0	0	0	510	509	0	452	39	2	
11	0	0	0	0	517	510	0	451	39	2	
12	0	0	0	0	514	510	1	448	39	2	
13	0	0	0	0	512	510	0	454	39	2	
14	0	0	0	0	512	511	0	462	39	2	
15	0	0	0	0	508	511	0	470	39	2	
0	0	0	0	0	512	510	0	476	39	2	
1	0	0	0	0	512	509	0	474	39	2	
2	0	0	0	0	509	510	0	471	39	2	
3	0	0	0	0	506	511	0	466	39	2	
4	0	0	0	0	509	511	0	447	39	2	
5	0	0	0	0	507	511	0	446	39	2	
6	0	0	0	0	514	511	0	442	39	2	
7	0	0	0	0	506	514	0	441	39	2	
8	0	0	0	0	503	513	0	441	39	2	
9	0	0	0	0	513	512	0	446	38	2	
10	0	0	0	0	514	511	0	448	39	2	
11	0	0	0	0	518	511	0	455	39	2	
12	0	0	0	0	512	512	1	457	38	2	
13	0	0	0	0	512	513	0	455	39	2	
14	0	0	0	0	504	512	0	443	39	2	
15	0	0	0	0	517	512	0	430	39	2	
0	0	0	0	0	508	512	1	420	39	2	
1	0	0	0	0	511	512	0	420	39	2	
2	0	0	0	0	511	511	0	420	39	2	
3	0	0	0	0	507	512	0	426	39	2	
4	0	0	0	0	508	513	0	439	39	2	
5	0	0	0	0	507	511	0	462	39	2	
6	0	0	0	0	508	511	0	486	39	2	
7	0	0	0	0	508	510	0	492	39	2	
8	0	0	0	0	506	510	1	485	39	2	
9	0	0	0	0	512	506	0	476	39	2	
10	0	0	0	0	512	507	0	478	39	2	
11	0	0	0	0	512	508	0	481	39	2	
12	0	0	0	0	512	510	1	482	39	2	
13	0	0	0	0	509	510	0	470	39	2	
14	0	0	0	0	516	513	0	467	39	2	
15	0	0	0	0	516	514	0	466	39	2	
0	0	0	0	0	511	513	1	468	39	2	
1	0	0	0	0	515	512	0	475	39	2	
2	0	0	0	0	506	513	0	479	39	2	
3	0	0	0	0	507	513	0	488	39	2	
4	0	0	0	0	509	513	0	497	38	2	
5	0	0	0	0	509	512	0	511	39	2	
6	0	0	0	0	507	512	0	534	39	2	
7	0	0	0	0	506	514	0	556	38	2	
8	0	0	0	0	508	514	1	566	39	2	
9	0	0	0	0	514	513	0	564	39	2	
10	0	0	0	0	509	513	0	550	39	2	
11	0	0	0	0	512	514	0	537	39	2	
12	0	0	0	0	512	515	1	527	39	2	
13	0	0	0	0	512	513	0	528	39	2	
14	0	0	0	0	510	513	0	537	39	2	
15	0	0	0	0	511	513	0	551	38	2	
0	0	0	0	0	512	512	0	558	39	2	
1	0	0	0	0	515	514	0	558	39	2	
2	0	0	0	0	502	513	0	555	39	2	
3	0	0	0	0	513	514	0	561	39	2	
4	0	0	0	0	513	513	0	576	39	2	
5	0	0	0	0	508	511	0	590	39	2	
6	0	0	0	0	505	511	0	592	39	2	
7	0	0	0	0	511	513	0	583	39	2	
8	0	0	0	0	509	513	1	571	39	2	
9	0	0	0	0	515	513	0	570	39	2	
10	0	0	0	0	514	512	0	570	39	2	
11	0	0	0	0	509	514	0	570	38	2	
12	0	0	0	0	500	515	1	574	39	2	
13	0	0	0	0	512	512	0	578	39	2	
14	0	0	0	0	515	513	0	576	39	2	
15	0	0	0	0	515	512	0	581	39	2	
0	0	0	0	0	512	513	0	584	39	2	
1	0	0	0	0	508	513	0	583	39	2	
2	0	0	0	0	515	512	0	581	39	2	
3	0	0	0	0	509	513	0	577	38	2	
4	0	0	0	0	510	512	0	575	39	2	
5	0	0	0	0	507	510	0	575	39	2	
6	0	0	0	0	511	510	0	575	39	2	
7	0	0	0	0	511	512	0	572	39	2	
8	0	0	0	0	507	512	1	575	39	2	
9	0	0	0	0	514	511	0	587	39	2	
10	0	0	0	0	516	510	0	601	39	2	
11	0	0	0	0	512	512	0	603	38	2	
12	0	0	0	0	504	512	1	590	39	2	
13	0	0	0	0	512	512	0	579	39	2	
14	0	0	0	0	514	512	0	563	39	2	
15	0	0	0	0	506	511	0	540	39	2	
0	0	0	0	0	519	511	0	516	39	2	
1	0	0	0	0	516	513	0	493	39	2	
2	0	0	0	0	507	514	0	467	39	2	
3	0	0	0	0	515	515	0	448	39	2	
4	0	0	0	0	503	516	1	438	38	2	
5	0	0	0	0	508	516	0	435	39	2	
6	0	0	0	0	509	515	0	445	39	2	
7	0	0	0	0	505	515	0	451	38	2	
8	0	0	0	0	505	514	1	460	39	2	
9	0	0	0	0	511	513	0	468	39	2	
10	0	0	0	0	516	512	0	472	39	2	
11	0	0	0	0	511	513	0	479	39	2	
12	0	0	0	0	510	514	1	477	39	2	
13	0	0	0	0	510	513	0	470	39	2	
14	0	0	0	0	511	515	0	468	39	2	
15	0	0	0	0	513	515	0	470	39	2	
0	0	0	0	0	521	515	1	468	39	2	
1	0	0	0	0	508	513	0	471	39	2	
2	0	0	0	0	508	514	0	480	39	2	
3	0	0	0	0	510	515	0	487	39	2	
4	0	0	0	0	511	514	1	493	39	2	
5	0	0	0	0	506	512	0	499	39	2	
6	0	0	0	0	508	514	0	512	39	2	
7	0	0	0	0	510	515	0	533	39	2	
8	0	0	0	0	513	515	1	541	39	2	
9	0	0	0	0	510	512	0	545	39	2	
10	0	0	0	0	511	515	0	543	39	2	
11	0	0	0	0	509	515	0	539	39	2	
12	0	0	0	0	511	511	1	533	39	2	
13	0	0	0	0	506	512	0	529	39	2	
14	0	0	0	0	511	514	0	526	38	2	
15	0	0	0	0	515	515	0	527	38	2	
0	0	0	0	0	516	514	1	531	39	2	
1	0	0	0	0	515	513	0	544	39	2	
2	0	0	0	0	511	514	0	561	39	2	
3	0	0	0	0	510	513	0	560	39	2	
4	0	0	0	0	508	515	1	551	38	2	
5	0	0	0	0	511	514	0	549	39	2	
6	0	0	0	0	510	515	0	554	39	2	
7	0	0	0	0	508	513	0	557	39	2	
8	0	0	0	0	507	512	1	555	39	2	
9	0	0	0	0	515	511	0	550	39	2	
10	0	0	0	0	507	511	0	529	39	2	
11	0	0	0	0	506	511	0	503	39	2	
12	0	0	0	0	510	510	0	476	39	2	
13	0	0	0	0	513	510	0	448	39	2	
14	0	0	0	0	510	512	0	429	39	2	
15	0	0	0	0	515	510	0	436	39	2	
0	0	0	0	0	515	510	0	465	39	2	
1	0	0	0	0	510	510	0	505	39	2	
2	0	0	0	0	509	510	0	547	39	2	
3	0	0	0	0	510	510	0	586	39	2	
4	0	0	0	0	513	510	1	623	39	2	
5	0	0	0	0	508	510	0	661	39	2	
6	0	0	0	0	504	510	0	699	39	2	
7	0	0	0	0	502	512	0	732	39	2	
8	0	0	0	0	513	510	1	755	39	2	
9	0	0	0	0	509	510	0	762	39	2	
10	0	0	0	0	504	511	0	751	39	2	
11	0	0	0	0	504	512	0	726	39	2	
12	0	0	0	0	504	513	1	697	39	2	
13	0	0	0	0	511	514	0	670	39	2	
14	0	0	0	0	511	513	0	650	39	2	
15	0	0	0	0	513	512	0	633	39	2	
0	0	0	0	0	515	513	1	615	39	2	
1	0	0	0	0	519	515	0	607	39	2	
2	0	0	0	0	512	514	0	605	39	2	
3	0	0	0	0	512	515	0	611	39	2	
4	0	0	0	0	512	515	0	627	39	2	
5	0	0	0	0	508	512	0	644	39	2	
6	0	0	0	0	504	512	0	661	39	2	
7	0	0	0	0	509	513	0	674	39	2	
8	0	0	0	0	512	513	1	683	39	2	
9	0	0	0	0	506	513	0	694	39	2	
10	0	0	0	0	509	515	0	707	39	2	
11	0	0	0	0	508	516	0	717	39	2	
12	0	0	0	0	507	515	1	726	39	2	
13	0	0	0	0	512	512	0	738	39	2	
14	0	0	0	0	515	511	0	743	39	2	
15	0	0	0	0	511	514	0	738	39	2	
0	0	0	0	0	501	515	1	730	39	2	
1	0	0	0	0	512	513	0	726	39	2	
2	0	0	0	0	510	513	0	723	39	2	
3	0	0	0	0	516	513	0	720	39	2	
4	0	0	0	0	516	513	0	708	39	2	
5	0	0	0	0	511	511	0	700	39	2	
6	0	0	0	0	507	514	0	696	39	2	
7	0	0	0	0	504	514	0	700	39	2	
8	0	0	0	0	510	515	1	709	39	2	
9	0	0	0	0	511	513	0	711	39	2	
10	0	0	0	0	507	512	0	706	39	2	
11	0	0	0	0	510	513	0	696	39	2	
12	0	0	0	0	512	513	0	689	39	2	
13	0	0	0	0	513	514	0	695	39	2	
14	0	0	0	0	512	514	0	707	39	2	
15	0	0	0	0	502	513	0	713	39	2	
0	0	0	0	0	515	513	1	714	39	2	
1	0	0	0	0	503	512	0	715	39	2	
2	0	0	0	0	508	512	0	715	39	2	
3	0	0	0	0	511	512	0	710	38	2	
4	0	0	0	0	517	512	0	698	38	2	
5	0	0	0	0	516	511	0	687	39	2	
6	0	0	0	0	514	513	0	681	39	2	
7	0	0	0	0	508	512	0	673	39	2	
8	0	0	0	0	516	513	1	664	39	2	
9	0	0	0	0	515	511	0	663	39	2	
10	0	0	0	0	507	512	0	636	39	2	
11	0	0	0	0	505	513	0	621	39	2	
12	0	0	0	0	507	512	1	617	39	2	
13	0	0	0	0	504	509	0	604	39	2	
14	0	0	0	0	508	509	0	595	39	2	
15	0	0	0	0	505	510	0	590	39	2	
0	0	0	0	0	510	509	0	584	39	2	
1	0	0	0	0	510	509	0	583	39	2	
2	0	0	0	0	513	509	0	594	39	2	
3	0	0	0	0	512	509	0	606	39	2	
4	0	0	0	0	509	510	1	611	39	2	
5	0	0	0	0	509	509	0	611	39	2	
6	0	0	0	0	508	510	0	615	39	2	
7	0	0	0	0	514	511	0	622	39	2	
8	0	0	0	0	511	513	1	619	39	2	
9	0	0	0	0	508	512	0	616	39	2	
10	0	0	0	0	504	511	0	607	39	2	
11	0	0	0	0	516	510	0	592	39	2	
12	0	0	0	0	509	512	1	579	39	2	
13	0	0	0	0	507	512	0	590	39	2	
14	0	0	0	0	506	510	0	579	39	2	
15	0	0	0	0	508	511	0	580	39	2	
0	0	0	0	0	508	511	0	574	39	2	
1	0	0	0	0	507	512	0	560	39	2	
2	0	0	0	0	508	514	0	546	39	2	
3	0	0	0	0	523	515	0	539	39	2	
4	0	0	0	0	514	516	1	542	39	2	
5	0	0	0	0	511	514	0	548	39	2	
6	0	0	0	0	512	515	0	537	39	2	
7	0	0	0	0	519	515	0	518	39	2	
8	0	0	0	0	508	513	0	501	39	2	
9	0	0	0	0	514	513	0	493	39	2	
10	0	0	0	0	508	514	0	491	39	2	
11	0	0	0	0	509	515	0	491	38	2	
12	0	0	0	0	504	513	0	491	38	2	
13	0	0	0	0	504	510	0	493	39	2	
14	0	0	0	0	503	509	0	499	39	2	
15	0	0	0	0	508	508	0	506	39	2	
0	0	0	0	0	514	508	0	509	38	2	
1	0	0	0	0	511	509	0	510	39	2	
2	0	0	0	0	511	511	0	504	39	2	
3	0	0	0	0	517	512	0	505	38	2	
4	0	0	0	0	512	511	0	513	39	2	
5	0	0	0	0	516	511	0	513	39	2	
6	0	0	0	0	515	511	0	506	39	2	
7	0	0	0	0	518	510	0	492	39	2	
8	0	0	0	0	504	511	1	483	39	2	
9	0	0	0	0	505	510	0	471	39	2	
10	0	0	0	0	503	511	0	464	39	2	
11	0	0	0	0	509	511	0	472	39	2	
12	0	0	0	0	512	512	0	470	39	2	
13	0	0	0	0	510	513	0	480	39	2	
14	0	0	0	0	505	513	0	491	39	2	
15	0	0	0	0	507	514	0	503	39	2	
0	0	0	0	0	508	514	1	507	39	2	
1	0	0	0	0	504	512	0	517	39	2	
2	0	0	0	0	511	514	0	531	39	2	
3	0	0	0	0	515	513	0	537	39	2	
4	0	0	0	0	512	511	0	529	38	2	
5	0	0	0	0	512	509	0	517	39	2	
6	0	0	0	0	512	510	0	508	39	2	
7	0	0	0	0	515	513	0	509	39	2	
8	0	0	0	0	523	514	1	520	39	2	
9	0	0	0	0	504	513	0	541	39	2	
10	0	0	0	0	508	514	0	551	39	2	
11	0	0	0	0	511	514	0	552	39	2	
12	0	0	0	0	510	514	0	546	39	2	
13	0	0	0	0	505	514	0	548	39	2	
14	0	0	0	0	505	515	0	558	39	2	
15	0	0	0	0	506	513	0	568	39	2	
0	0	0	0	0	515	513	1	569	39	2	
1	0	0	0	0	507	513	0	569	39	2	
2	0	0	0	0	512	513	0	572	39	2	
3	0	0	0	0	510	511	0	576	39	2	
4	0	0	0	0	508	511	1	579	39	2	
5	0	0	0	0	511	510	0	582	39	2	
6	0	0	0	0	512	510	0	585	39	2	
7	0	0	0	0	515	513	0	589	39	2	
8	0	0	0	0	516	512	1	582	39	2	
9	0	0	0	0	510	511	0	570	39	2	
10	0	0	0	0	509	512	0	564	39	2	
11	0	0	0	0	512	514	0	576	39	2	
12	0	0	0	0	507	513	0	584	39	2	
13	0	0	0	0	507	514	0	597	39	2	
14	0	0	0	0	511	514	0	601	39	2	
15	0	0	0	0	502	514	0	597	38	2	
0	0	0	0	0	507	514	1	599	39	2	
1	0	0	0	0	504	512	0	604	39	2	
2	0	0	0	0	506	512	0	622	39	2	
3	0	0	0	0	506	513	0	607	39	2	
4	0	0	0	0	517	514	0	608	39	2	
5	0	0	0	0	513	513	0	599	39	2	
6	0	0	0	0	507	511	0	593	39	2	
7	0	0	0	0	509	511	0	593	39	2	
8	0	0	0	0	512	511	1	593	39	2	
9	0	0	0	0	515	510	0	588	39	2	
10	0	0	0	0	514	511	0	578	39	2	
11	0	0	0	0	513	510	0	567	39	2	
12	0	0	0	0	511	511	1	546	39	2	
13	0	0	0	0	501	511	0	529	39	2	
14	0	0	0	0	512	513	0	510	39	2	
15	0	0	0	0	501	514	0	492	39	2	
0	0	0	0	0	507	513	1	472	39	2	
1	0	0	0	0	517	512	0	459	39	2	
2	0	0	0	0	503	511	0	455	39	2	
3	0	0	0	0	512	513	0	460	39	2	
4	0	0	0	0	512	514	1	467	38	2	
5	0	0	0	0	509	512	0	476	39	2	
6	0	0	0	0	511	512	0	483	39	2	
7	0	0	0	0	513	512	0	491	39	2	
8	0	0	0	0	515	512	0	498	39	2	
9	0	0	0	0	507	513	0	500	39	2	
10	0	0	0	0	515	511	0	504	39	2	
11	0	0	0	0	511	514	0	506	38	2	
12	0	0	0	0	515	513	0	519	38	2	
13	0	0	0	0	502	511	0	509	39	2	
14	0	0	0	0	512	512	0	515	39	2	
15	0	0	0	0	513	512	0	517	39	2	
0	0	0	0	0	505	512	1	514	38	2	
1	0	0	0	0	502	512	0	519	39	2	
2	0	0	0	0	508	512	0	513	39	2	
3	0	0	0	0	511	512	0	504	38	2	
4	0	0	0	0	511	512	0	506	38	2	
5	0	0	0	0	511	514	0	512	39	2	
6	0	0	0	0	511	513	0	521	39	2	
7	0	0	0	0	509	513	0	527	39	2	
8	0	0	0	0	513	515	1	523	39	2	
9	0	0	0	0	523	514	0	520	39	2	
10	0	0	0	0	520	512	0	508	39	2	
11	0	0	0	0	510	512	0	497	38	2	
12	0	0	0	0	507	510	1	496	39	2	
13	0	0	0	0	510	510	0	492	39	2	
14	0	0	0	0	507	510	0	489	39	2	
15	0	0	0	0	506	511	0	486	38	2	
0	0	0	0	0	506	510	0	491	39	2	
1	0	0	0	0	504	510	0	501	39	2	
2	0	0	0	0	506	510	0	515	39	2	
3	0	0	0	0	511	511	0	518	39	2	
4	0	0	0	0	514	512	0	517	38	2	
5	0	0	0	0	511	511	0	515	39	2	
6	0	0	0	0	511	512	0	512	39	2	
7	0	0	0	0	516	513	0	510	39	2	
8	0	0	0	0	513	512	1	497	39	2	
9	0	0	0	0	512	510	0	485	39	2	
10	0	0	0	0	515	511	0	472	39	2	
11	0	0	0	0	517	511	0	466	39	2	
12	0	0	0	0	514	512	1	466	39	2	
13	0	0	0	0	510	509	0	467	39	2	
14	0	0	0	0	503	511	0	455	39	2	
15	0	0	0	0	504	512	0	440	39	2	
0	0	0	0	0	508	511	0	431	39	2	
1	0	0	0	0	508	511	0	421	39	2	
2	0	0	0	0	503	512	0	419	39	2	
3	0	0	0	0	504	512	0	419	39	2	
4	0	0	0	0	505	510	1	423	39	2	
5	0	0	0	0	519	510	0	426	39	2	
6	0	0	0	0	506	512	0	430	39	2	
7	0	0	0	0	519	511	0	431	39	2	
8	0	0	0	0	514	512	0	436	39	2	
9	0	0	0	0	513	511	0	441	39	2	
10	0	0	0	0	515	512	0	443	39	2	
11	0	0	0	0	515	512	0	446	39	2	
12	0	0	0	0	509	512	1	454	39	2	
13	0	0	0	0	514	513	0	471	39	2	
14	0	0	0	0	510	512	0	479	39	2	
15	0	0	0	0	505	513	0	482	39	2	
0	0	0	0	0	507	513	1	475	39	2	
1	0	0	0	0	510	513	0	464	39	2	
2	0	0	0	0	507	513	0	447	39	2	
3	0	0	0	0	502	514	0	441	39	2	
4	0	0	0	0	510	514	0	443	39	2	
5	0	0	0	0	510	513	0	453	39	2	
6	0	0	0	0	515	513	0	466	39	2	
7	0	0	0	0	504	515	0	481	39	2	
8	0	0	0	0	510	515	1	489	39	2	
9	0	0	0	0	511	514	0	483	39	2	
10	0	0	0	0	510	515	0	472	39	2	
11	0	0	0	0	515	514	0	462	39	2	
12	0	0	0	0	517	516	1	455	39	2	
13	0	0	0	0	504	513	0	451	39	2	
14	0	0	0	0	512	512	0	444	39	2	
15	0	0	0	0	506	513	0	456	39	2	
0	0	0	0	0	518	514	0	468	39	2	
1	0	0	0	0	502	513	0	477	39	2	
2	0	0	0	0	504	514	0	479	39	2	
3	0	0	0	0	504	514	0	475	39	2	
4	0	0	0	0	507	513	0	461	38	2	
5	0	0	0	0	512	513	0	454	39	2	
6	0	0	0	0	508	513	0	449	39	2	
7	0	0	0	0	515	512	0	442	39	2	
8	0	0	0	0	515	514	1	428	39	2	
9	0	0	0	0	520	512	0	423	39	2	
10	0	0	0	0	514	513	0	427	39	2	
11	0	0	0	0	508	512	0	440	38	2	
12	0	0	0	0	516	512	1	448	39	2	
13	0	0	0	0	516	513	0	456	39	2	
14	0	0	0	0	510	513	0	465	39	2	
15	0	0	0	0	513	514	0	478	39	2	
0	0	0	0	0	508	514	1	493	38	2	
1	0	0	0	0	505	513	0	517	39	2	
2	0	0	0	0	509	513	0	536	39	2	
3	0	0	0	0	509	513	0	542	38	2	
4	0	0	0	0	504	512	0	535	39	2	
5	0	0	0	0	515	510	0	533	39	2	
6	0	0	0	0	503	508	0	544	39	2	
7	0	0	0	0	507	509	0	552	38	2	
8	0	0	0	0	510	508	1	556	38	2	
9	0	0	0	0	509	508	0	563	39	2	
10	0	0	0	0	513	510	0	578	39	2	
11	0	0	0	0	516	511	0	593	39	2	
12	0	0	0	0	510	512	1	604	39	2	
13	0	0	0	0	510	511	0	605	39	2	
14	0	0	0	0	516	512	0	596	39	2	
15	0	0	0	0	508	513	0	596	39	2	
0	0	0	0	0	508	514	1	595	39	2	
1	0	0	0	0	508	512	0	595	39	2	
2	0	0	0	0	508	512	0	585	39	2	
3	0	0	0	0	513	514	0	572	39	2	
4	0	0	0	0	506	513	1	553	39	2	
5	0	0	0	0	500	512	0	543	39	2	
6	0	0	0	0	508	512	0	536	39	2	
7	0	0	0	0	511	512	0	536	39	2	
8	0	0	0	0	507	513	1	534	39	2	
9	0	0	0	0	512	512	0	535	39	2	
10	0	0	0	0	513	513	0	515	39	2	
11	0	0	0	0	516	513	0	510	38	2	
12	0	0	0	0	508	512	1	518	38	2	
13	0	0	0	0	518	511	0	523	39	2	
14	0	0	0	0	513	512	0	518	39	2	
15	0	0	0	0	511	513	0	510	39	2	
0	0	0	0	0	509	511	1	500	39	2	
1	0	0	0	0	510	511	0	496	39	2	
2	0	0	0	0	509	512	0	498	39	2	
3	0	0	0	0	504	511	0	504	39	2	
4	0	0	0	0	508	509	0	512	39	2	
5	0	0	0	0	505	512	0	513	39	2	
6	0	0	0	0	511	512	0	521	39	2	
7	0	0	0	0	509	512	0	533	39	2	
8	0	0	0	0	509	512	1	541	39	2	
9	0	0	0	0	510	510	0	538	39	2	
10	0	0	0	0	515	513	0	526	39	2	
11	0	0	0	0	511	512	0	509	38	2	
12	0	0	0	0	520	510	1	494	39	2	
13	0	0	0	0	518	508	0	487	39	2	
14	0	0	0	0	515	509	0	476	39	2	
15	0	0	0	0	515	510	0	460	39	2	
0	0	0	0	0	509	511	1	451	39	2	
1	0	0	0	0	507	511	0	448	39	2	
2	0	0	0	0	505	511	0	449	39	2	
3	0	0	0	0	513	511	0	446	39	2	
4	0	0	0	0	508	513	1	437	39	2	
5	0	0	0	0	510	512	0	425	39	2	
6	0	0	0	0	507	511	0	413	39	2	
7	0	0	0	0	503	511	0	408	39	2	
8	0	0	0	0	512	511	0	403	39	2	
9	0	0	0	0	514	512	0	393	39	2	
10	0	0	0	0	512	513	0	388	39	2	
11	0	0	0	0	512	514	0	384	39	2	
12	0	0	0	0	508	514	1	381	39	2	
13	0	0	0	0	512	514	0	383	39	2	
14	0	0	0	0	513	514	0	386	39	2	
15	0	0	0	0	519	514	0	394	39	2	
0	0	0	0	0	514	513	1	397	39	2	
1	0	0	0	0	505	513	0	404	39	2	
2	0	0	0	0	507	514	0	399	39	2	
3	0	0	0	0	506	514	0	394	39	2	
4	0	0	0	0	504	514	1	396	39	2	
5	0	0	0	0	510	512	0	412	39	2	
6	0	0	0	0	500	514	0	428	39	2	
7	0	0	0	0	508	514	0	435	38	2	
8	0	0	0	0	505	512	0	438	39	2	
9	0	0	0	0	507	513	0	439	39	2	
10	0	0	0	0	515	515	0	438	39	2	
11	0	0	0	0	511	516	0	434	38	2	
12	0	0	0	0	510	514	1	430	39	2	
13	0	0	0	0	512	515	0	427	39	2	
14	0	0	0	0	515	515	0	415	39	2	
15	0	0	0	0	507	515	0	412	39	2	
0	0	0	0	0	516	513	0	417	39	2	
1	0	0	0	0	517	511	0	426	39	2	
2	0	0	0	0	505	511	0	432	39	2	
3	0	0	0	0	507	512	0	435	38	2	
4	0	0	0	0	515	512	0	425	38	2	
5	0	0	0	0	506	512	0	420	39	2	
6	0	0	0	0	508	513	0	417	39	2	
7	0	0	0	0	505	513	0	423	39	2	
8	0	0	0	0	503	513	1	432	39	2	
9	0	0	0	0	509	510	0	442	39	2	
10	0	0	0	0	511	510	0	451	39	2	
11	0	0	0	0	517	512	0	464	39	2	
12	0	0	0	0	514	512	1	473	39	2	
13	0	0	0	0	510	510	0	483	39	2	
14	0	0	0	0	509	511	0	491	39	2	
15	0	0	0	0	516	511	0	500	39	2	
0	0	0	0	0	516	511	0	500	39	2	
1	0	0	0	0	512	513	0	500	39	2	
2	0	0	0	0	507	512	0	493	39	2	
3	0	0	0	0	512	512	0	489	39	2	
4	0	0	0	0	512	512	1	495	39	2	
5	0	0	0	0	504	512	0	484	39	2	
6	0	0	0	0	506	513	0	478	39	2	
7	0	0	0	0	509	513	0	467	39	2	
8	0	0	0	0	504	513	1	451	39	2	
9	0	0	0	0	498	511	0	441	39	2	
10	0	0	0	0	507	511	0	440	39	2	
11	0	0	0	0	509	512	0	439	38	2	
12	0	0	0	0	511	513	0	435	39	2	
13	0	0	0	0	517	512	0	434	39	2	
14	0	0	0	0	512	513	0	439	39	2	
15	0	0	0	0	510	514	0	441	39	2	
0	0	0	0	0	518	512	1	435	39	2	
1	0	0	0	0	521	512	0	437	39	2	
2	0	0	0	0	512	513	0	450	39	2	
3	0	0	0	0	513	515	0	470	39	2	
4	0	0	0	0	509	513	0	492	39	2	
5	0	0	0	0	506	511	0	523	39	2	
6	0	0	0	0	510	512	0	535	39	2	
7	0	0	0	0	501	512	0	539	39	2	
8	0	0	0	0	507	511	0	532	39	2	
9	0	0	0	0	510	510	0	532	39	2	
10	0	0	0	0	504	511	0	534	39	2	
11	0	0	0	0	517	511	0	524	39	2	
12	0	0	0	0	514	510	1	517	39	2	
13	0	0	0	0	504	508	0	520	39	2	
14	0	0	0	0	512	509	0	520	39	2	
15	0	0	0	0	517	511	0	504	39	2	
0	0	0	0	0	516	513	0	483	39	2	
1	0	0	0	0	510	513	0	470	39	2	
2	0	0	0	0	514	510	0	463	39	2	
3	0	0	0	0	508	511	0	455	38	2	
4	0	0	0	0	515	511	0	450	39	2	
5	0	0	0	0	504	512	0	450	39	2	
6	0	0	0	0	509	512	0	454	39	2	
7	0	0	0	0	503	512	0	464	39	2	
8	0	0	0	0	504	513	1	470	39	2	
9	0	0	0	0	503	512	0	474	39	2	
10	0	0	0	0	504	514	0	477	39	2	
11	0	0	0	0	507	516	0	476	39	2	
12	0	0	0	0	517	515	0	477	39	2	
13	0	0	0	0	505	513	0	467	39	2	
14	0	0	0	0	507	511	0	450	39	2	
15	0	0	0	0	513	512	0	446	39	2	
0	0	0	0	0	510	512	0	449	39	2	
1	0	0	0	0	520	513	0	450	39	2	
2	0	0	0	0	513	515	0	446	39	2	
3	0	0	0	0	511	515	0	443	38	2	
4	0	0	0	0	508	515	1	448	39	2	
5	0	0	0	0	509	515	0	448	39	2	
6	0	0	0	0	508	512	0	462	39	2	
7	0	0	0	0	511	513	0	468	39	2	
8	0	0	0	0	513	512	0	473	39	2	
9	0	0	0	0	507	512	0	478	39	2	
10	0	0	0	0	515	511	0	483	39	2	
11	0	0	0	0	513	513	0	497	39	2	
12	0	0	0	0	507	512	0	517	39	2	
13	0	0	0	0	509	512	0	540	39	2	
14	0	0	0	0	510	512	0	558	39	2	
15	0	0	0	0	512	512	0	567	39	2	
0	0	0	0	0	512	512	1	567	39	2	
1	0	0	0	0	513	510	0	557	39	2	
2	0	0	0	0	512	511	0	541	39	2	
3	0	0	0	0	509	511	0	527	39	2	
4	0	0	0	0	514	512	0	515	39	2	
5	0	0	0	0	507	514	0	507	39	2	
6	0	0	0	0	503	513	0	510	39	2	
7	0	0	0	0	505	510	0	522	39	2	
8	0	0	0	0	511	510	0	538	39	2	
9	0	0	0	0	508	511	0	541	39	2	
10	0	0	0	0	513	511	0	545	39	2	
11	0	0	0	0	509	511	0	523	39	2	
12	0	0	0	0	512	511	1	511	38	2	
13	0	0	0	0	514	511	0	519	39	2	
14	0	0	0	0	516	510	0	536	39	2	
15	0	0	0	0	518	512	0	555	39	2	
0	0	0	0	0	515	510	1	555	39	2	
1	0	0	0	0	508	509	0	550	39	2	
2	0	0	0	0	517	512	0	543	39	2	
3	0	0	0	0	507	511	0	536	39	2	
4	0	0	0	0	512	513	0	527	39	2	
5	0	0	0	0	512	512	0	517	39	2	
6	0	0	0	0	506	513	0	512	39	2	
7	0	0	0	0	509	514	0	513	39	2	
8	0	0	0	0	506	513	1	520	39	2	
9	0	0	0	0	505	512	0	538	39	2	
10	0	0	0	0	511	511	0	563	39	2	
11	0	0	0	0	507	512	0	575	39	2	
12	0	0	0	0	509	511	1	576	39	2	
13	0	0	0	0	510	511	0	581	39	2	
14	0	0	0	0	507	511	0	584	39	2	
15	0	0	0	0	513	511	0	587	39	2	
0	0	0	0	0	517	509	0	590	39	2	
1	0	0	0	0	511	508	0	588	39	2	
2	0	0	0	0	513	510	0	575	39	2	
3	0	0	0	0	518	512	0	560	39	2	
4	0	0	0	0	511	513	1	548	39	2	
5	0	0	0	0	508	511	0	542	39	2	
6	0	0	0	0	511	511	0	547	39	2	
7	0	0	0	0	512	511	0	552	39	2	
8	0	0	0	0	508	511	1	554	39	2	
9	0	0	0	0	506	511	0	553	39	2	
10	0	0	0	0	509	512	0	547	39	2	
11	0	0	0	0	512	512	0	537	38	2	
12	0	0	0	0	512	512	1	521	39	2	
13	0	0	0	0	499	513	0	506	39	2	
14	0	0	0	0	506	513	0	503	39	2	
15	0	0	0	0	519	512	0	505	39	2	
0	0	0	0	0	507	510	1	506	39	2	
1	0	0	0	0	510	509	0	512	39	2	
2	0	0	0	0	510	510	0	515	39	2	
3	0	0	0	0	512	511	0	516	38	2	
4	0	0	0	0	514	510	1	519	38	2	
5	0	0	0	0	526	509	0	521	39	2	
6	0	0	0	0	513	508	0	527	39	2	
7	0	0	0	0	503	511	0	526	39	2	
8	0	0	0	0	510	510	1	530	39	2	
9	0	0	0	0	510	509	0	544	39	2	
10	0	0	0	0	511	511	0	552	39	2	
11	0	0	0	0	512	513	0	553	39	2	
12	0	0	0	0	509	515	1	541	38	2	
13	0	0	0	0	500	515	0	533	39	2	
14	0	0	0	0	504	513	0	527	39	2	
15	0	0	0	0	508	513	0	526	38	2	
0	0	0	0	0	518	511	1	532	39	2	
1	0	0	0	0	511	511	0	539	39	2	
2	0	0	0	0	512	510	0	558	39	2	
3	0	0	0	0	511	511	0	567	39	2	
4	0	0	0	0	510	511	0	577	38	2	
5	0	0	0	0	510	511	0	577	39	2	
6	0	0	0	0	512	512	0	575	39	2	
7	0	0	0	0	515	512	0	568	39	2	
8	0	0	0	0	499	512	1	564	39	2	
9	0	0	0	0	504	512	0	574	39	2	
10	0	0	0	0	518	515	0	595	39	2	
11	0	0	0	0	512	515	0	617	39	2	
12	0	0	0	0	510	514	0	624	38	2	
13	0	0	0	0	514	515	0	620	39	2	
14	0	0	0	0	505	515	0	612	39	2	
15	0	0	0	0	506	514	0	607	39	2	
0	0	0	0	0	509	513	0	596	39	2	
1	0	0	0	0	512	513	0	581	39	2	
2	0	0	0	0	507	516	0	564	39	2	
3	0	0	0	0	513	515	0	550	39	2	
4	0	0	0	0	512	514	0	535	39	2	
5	0	0	0	0	519	515	0	524	39	2	
6	0	0	0	0	516	513	0	512	39	2	
7	0	0	0	0	514	514	0	505	39	2	
8	0	0	0	0	506	515	1	503	38	2	
9	0	0	0	0	505	515	0	496	39	2	
10	0	0	0	0	512	516	0	491	39	2	
11	0	0	0	0	504	514	0	480	39	2	
12	0	0	0	0	503	515	1	469	39	2	
13	0	0	0	0	509	513	0	468	39	2	
14	0	0	0	0	511	515	0	466	39	2	
15	0	0	0	0	507	515	0	465	39	2	
0	0	0	0	0	512	516	1	465	39	2	
1	0	0	0	0	515	514	0	460	39	2	
2	0	0	0	0	508	514	0	450	39	2	
3	0	0	0	0	511	515	0	439	39	2	
4	0	0	0	0	510	514	1	425	39	2	
5	0	0	0	0	513	514	0	413	39	2	
6	0	0	0	0	516	513	0	406	39	2	
7	0	0	0	0	512	513	0	401	39	2	
8	0	0	0	0	511	512	1	398	39	2	
9	0	0	0	0	512	512	0	417	39	2	
10	0	0	0	0	514	513	0	432	39	2	
11	0	0	0	0	513	513	0	446	39	2	
12	0	0	0	0	506	512	0	454	39	2	
13	0	0	0	0	506	512	0	447	39	2	
14	0	0	0	0	504	512	0	432	38	2	
15	0	0	0	0	505	513	0	434	39	2	
0	0	0	0	0	510	512	1	443	39	2	
1	0	0	0	0	513	511	0	449	39	2	
2	0	0	0	0	505	511	0	463	39	2	
3	0	0	0	0	513	511	0	461	39	2	
4	0	0	0	0	513	511	1	452	39	2	
5	0	0	0	0	508	511	0	451	39	2	
6	0	0	0	0	510	512	0	441	39	2	
7	0	0	0	0	518	514	0	430	39	2	
8	0	0	0	0	511	510	0	426	38	2	
9	0	0	0	0	520	511	0	441	39	2	
10	0	0	0	0	507	512	0	460	39	2	
11	0	0	0	0	513	513	0	467	38	2	
12	0	0	0	0	509	512	0	470	39	2	
13	0	0	0	0	503	511	0	476	39	2	
14	0	0	0	0	512	512	0	476	39	2	
15	0	0	0	0	505	512	0	476	38	2	
0	0	0	0	0	508	511	1	473	39	2	
1	0	0	0	0	509	509	0	472	39	2	
2	0	0	0	0	507	509	0	459	39	2	
3	0	0	0	0	511	511	0	454	39	2	
4	0	0	0	0	513	510	1	458	39	2	
5	0	0	0	0	508	508	0	473	39	2	
6	0	0	0	0	512	508	0	490	39	2	
7	0	0	0	0	515	510	0	486	39	2	
8	0	0	0	0	514	510	0	476	39	2	
9	0	0	0	0	507	511	0	473	39	2	
10	0	0	0	0	508	510	0	477	39	2	
11	0	0	0	0	510	511	0	471	39	2	
12	0	0	0	0	508	511	0	458	39	2	
13	0	0	0	0	506	512	0	444	39	2	
14	0	0	0	0	503	513	0	432	39	2	
15	0	0	0	0	509	513	0	429	38	2	
0	0	0	0	0	511	512	1	432	39	2	
1	0	0	0	0	511	511	0	441	39	2	
2	0	0	0	0	505	510	0	448	39	2	
3	0	0	0	0	505	510	0	445	39	2	
4	0	0	0	0	514	510	1	433	38	2	
5	0	0	0	0	515	510	0	427	39	2	
6	0	0	0	0	513	508	0	423	39	2	
7	0	0	0	0	517	509	0	423	39	2	
8	0	0	0	0	513	508	0	423	39	2	
9	0	0	0	0	504	508	0	419	39	2	
10	0	0	0	0	514	509	0	406	39	2	
11	0	0	0	0	517	512	0	399	38	2	
12	0	0	0	0	514	510	0	395	38	2	
13	0	0	0	0	504	511	0	390	39	2	
14	0	0	0	0	506	510	0	385	39	2	
15	0	0	0	0	514	510	0	388	39	2	
0	0	0	0	0	504	512	0	394	38	2	
1	0	0	0	0	505	510	0	395	39	2	
2	0	0	0	0	513	512	0	397	39	2	
3	0	0	0	0	504	510	0	396	38	2	
4	0	0	0	0	511	509	0	392	39	2	
5	0	0	0	0	508	508	0	397	39	2	
6	0	0	0	0	508	510	0	406	39	2	
7	0	0	0	0	520	513	0	417	38	2	
8	0	0	0	0	521	512	1	416	39	2	
9	0	0	0	0	510	513	0	409	39	2	
10	0	0	0	0	511	512	0	399	39	2	
11	0	0	0	0	520	515	0	391	39	2	
12	0	0	0	0	511	514	1	390	39	2	
13	0	0	0	0	512	512	0	398	39	2	
14	0	0	0	0	511	512	0	409	39	2	
15	0	0	0	0	508	515	0	424	39	2	
0	0	0	0	0	505	515	0	428	39	2	
1	0	0	0	0	512	514	0	425	39	2	
2	0	0	0	0	506	515	0	416	39	2	
3	0	0	0	0	508	516	0	417	39	2	
4	0	0	0	0	512	515	0	422	39	2	
5	0	0	0	0	511	516	0	430	39	2	
6	0	0	0	0	513	515	0	439	39	2	
7	0	0	0	0	506	516	0	448	39	2	
8	0	0	0	0	510	515	1	446	39	2	
9	0	0	0	0	508	515	0	437	39	2	
10	0	0	0	0	517	513	0	426	39	2	
11	0	0	0	0	508	513	0	423	39	2	
12	0	0	0	0	517	513	1	412	39	2	
13	0	0	0	0	513	512	0	391	39	2	
14	0	0	0	0	503	512	0	372	39	2	
15	0	0	0	0	510	511	0	369	38	2	
0	0	0	0	0	510	512	0	375	39	2	
1	0	0	0	0	498	511	0	372	39	2	
2	0	0	0	0	512	511	0	372	39	2	
3	0	0	0	0	505	512	0	380	39	2	
4	0	0	0	0	501	511	0	382	38	2	
5	0	0	0	0	506	512	0	381	39	2	
6	0	0	0	0	508	515	0	377	39	2	
7	0	0	0	0	512	516	0	367	39	2	
8	0	0	0	0	518	512	0	359	39	2	
9	0	0	0	0	508	511	0	354	39	2	
10	0	0	0	0	519	511	0	342	39	2	
11	0	0	0	0	507	512	0	328	38	2	
12	0	0	0	0	509	512	1	320	39	2	
13	0	0	0	0	510	511	0	330	39	2	
14	0	0	0	0	511	512	0	341	39	2	
15	0	0	0	0	514	512	0	359	39	2	
0	0	0	0	0	505	512	1	371	39	2	
1	0	0	0	0	508	512	0	377	39	2	
2	0	0	0	0	513	512	0	384	39	2	
3	0	0	0	0	508	511	0	388	39	2	
4	0	0	0	0	512	511	0	391	39	2	
5	0	0	0	0	508	510	0	391	39	2	
6	0	0	0	0	507	510	0	393	39	2	
7	0	0	0	0	509	511	0	387	39	2	
8	0	0	0	0	517	511	0	386	39	2	
9	0	0	0	0	512	510	0	375	39	2	
10	0	0	0	0	511	510	0	359	39	2	
11	0	0	0	0	512	508	0	349	38	2	
12	0	0	0	0	511	507	1	335	39	2	
13	0	0	0	0	510	508	0	330	39	2	
14	0	0	0	0	510	512	0	333	39	2	
15	0	0	0	0	508	511	0	336	39	2	
0	0	0	0	0	512	512	0	351	39	2	
1	0	0	0	0	512	512	0	375	39	2	
2	0	0	0	0	503	510	0	403	39	2	
3	0	0	0	0	504	510	0	431	39	2	
4	0	0	0	0	502	511	1	464	39	2	
5	0	0	0	0	505	511	0	463	39	2	
6	0	0	0	0	513	511	0	459	39	2	
7	0	0	0	0	510	511	0	461	39	2	
8	0	0	0	0	513	511	1	471	39	2	
9	0	0	0	0	509	508	0	480	39	2	
10	0	0	0	0	515	510	0	485	39	2	
11	0	0	0	0	516	511	0	486	39	2	
12	0	0	0	0	515	510	0	484	38	2	
13	0	0	0	0	515	511	0	473	39	2	
14	0	0	0	0	509	510	0	459	39	2	
15	0	0	0	0	506	512	0	446	39	2	
0	0	0	0	0	506	512	1	432	39	2	
1	0	0	0	0	509	510	0	425	39	2	
2	0	0	0	0	511	510	0	425	39	2	
3	0	0	0	0	501	510	0	433	39	2	
4	0	0	0	0	508	511	1	445	39	2	
5	0	0	0	0	510	512	0	463	39	2	
6	0	0	0	0	504	512	0	471	39	2	
7	0	0	0	0	518	510	0	471	39	2	
8	0	0	0	0	510	510	1	470	39	2	
9	0	0	0	0	508	508	0	467	39	2	
10	0	0	0	0	507	510	0	463	39	2	
11	0	0	0	0	510	511	0	459	39	2	
12	0	0	0	0	512	510	0	460	39	2	
13	0	0	0	0	517	511	0	461	39	2	
14	0	0	0	0	513	511	0	469	39	2	
15	0	0	0	0	519	514	0	476	39	2	
0	0	0	0	0	505	511	0	477	39	2	
1	0	0	0	0	499	511	0	468	39	2	
2	0	0	0	0	505	512	0	466	39	2	
3	0	0	0	0	511	511	0	468	39	2	
4	0	0	0	0	505	511	0	476	38	2	
5	0	0	0	0	507	511	0	476	39	2	
6	0	0	0	0	509	512	0	477	39	2	
7	0	0	0	0	507	513	0	481	38	2	
8	0	0	0	0	512	512	1	495	39	2	
9	0	0	0	0	511	513	0	513	39	2	
10	0	0	0	0	514	513	0	527	39	2	
11	0	0	0	0	509	513	0	532	39	2	
12	0	0	0	0	511	511	1	523	39	2	
13	0	0	0	0	518	511	0	503	39	2	
14	0	0	0	0	512	512	0	478	39	2	
15	0	0	0	0	512	513	0	458	38	2	
0	0	0	0	0	511	512	0	444	39	2	
1	0	0	0	0	511	513	0	442	39	2	
2	0	0	0	0	509	513	0	454	39	2	
3	0	0	0	0	510	513	0	473	39	2	
4	0	0	0	0	507	512	1	495	39	2	
5	0	0	0	0	508	511	0	504	39	2	
6	0	0	0	0	511	512	0	508	39	2	
7	0	0	0	0	506	513	0	501	39	2	
8	0	0	0	0	506	512	0	488	39	2	
9	0	0	0	0	513	512	0	467	39	2	
10	0	0	0	0	513	512	0	448	39	2	
11	0	0	0	0	512	513	0	433	38	2	
12	0	0	0	0	512	511	0	430	39	2	
13	0	0	0	0	513	513	0	432	39	2	
14	0	0	0	0	509	512	0	432	39	2	
15	0	0	0	0	518	515	0	419	39	2	
0	0	0	0	0	511	513	1	404	39	2	
1	0	0	0	0	506	513	0	395	39	2	
2	0	0	0	0	513	513	0	391	39	2	
3	0	0	0	0	514	513	0	398	38	2	
4	0	0	0	0	506	513	1	408	39	2	
5	0	0	0	0	508	513	0	419	39	2	
6	0	0	0	0	509	513	0	430	39	2	
7	0	0	0	0	506	513	0	442	39	2	
8	0	0	0	0	504	512	1	454	39	2	
9	0	0	0	0	514	511	0	462	39	2	
10	0	0	0	0	515	511	0	468	39	2	
11	0	0	0	0	514	511	0	464	39	2	
12	0	0	0	0	520	513	1	464	39	2	
13	0	0	0	0	512	511	0	475	39	2	
14	0	0	0	0	511	512	0	484	39	2	
15	0	0	0	0	504	514	0	486	38	2	
0	0	0	0	0	511	516	1	481	39	2	
1	0	0	0	0	508	514	0	486	39	2	
2	0	0	0	0	509	513	0	497	39	2	
3	0	0	0	0	511	515	0	508	39	2	
4	0	0	0	0	505	515	1	509	39	2	
5	0	0	0	0	505	514	0	504	39	2	
6	0	0	0	0	512	514	0	504	39	2	
7	0	0	0	0	512	512	0	508	39	2	
8	0	0	0	0	517	513	1	506	39	2	
9	0	0	0	0	511	511	0	514	39	2	
10	0	0	0	0	512	513	0	524	39	2	
11	0	0	0	0	512	515	0	531	39	2	
12	0	0	0	0	508	514	1	538	39	2	
13	0	0	0	0	511	513	0	553	39	2	
14	0	0	0	0	511	513	0	577	39	2	
15	0	0	0	0	515	512	0	569	39	2	
0	0	0	0	0	506	512	1	573	39	2	
1	0	0	0	0	509	512	0	572	39	2	
2	0	0	0	0	511	512	0	565	39	2	
3	0	0	0	0	513	512	0	566	38	2	
4	0	0	0	0	511	510	0	568	39	2	
5	0	0	0	0	512	509	0	569	39	2	
6	0	0	0	0	511	509	0	563	39	2	
7	0	0	0	0	503	510	0	548	39	2	
8	0	0	0	0	507	513	1	535	38	2	
9	0	0	0	0	506	512	0	528	39	2	
10	0	0	0	0	514	512	0	518	39	2	
11	0	0	0	0	511	512	0	508	39	2	
12	0	0	0	0	508	512	0	495	39	2	
13	0	0	0	0	515	513	0	481	39	2	
14	0	0	0	0	515	514	0	478	39	2	
15	0	0	0	0	519	514	0	476	39	2	
0	0	0	0	0	508	514	1	471	39	2	
1	0	0	0	0	515	512	0	452	39	2	
2	0	0	0	0	510	511	0	435	39	2	
3	0	0	0	0	507	510	0	433	39	2	
4	0	0	0	0	507	510	1	436	38	2	
5	0	0	0	0	508	509	0	444	39	2	
6	0	0	0	0	513	510	0	452	39	2	
7	0	0	0	0	504	511	0	461	39	2	
8	0	0	0	0	513	514	1	468	39	2	
9	0	0	0	0	508	512	0	469	39	2	
10	0	0	0	0	506	513	0	464	39	2	
11	0	0	0	0	510	513	0	462	39	2	
12	0	0	0	0	510	513	0	473	39	2	
13	0	0	0	0	511	512	0	485	39	2	
14	0	0	0	0	508	511	0	486	38	2	
15	0	0	0	0	515	510	0	484	39	2	
0	0	0	0	0	509	508	0	483	39	2	
1	0	0	0	0	518	508	0	486	39	2	
2	0	0	0	0	517	508	0	479	39	2	
3	0	0	0	0	508	510	0	468	38	2	
4	0	0	0	0	506	511	1	462	39	2	
5	0	0	0	0	513	509	0	446	39	2	
6	0	0	0	0	514	510	0	442	39	2	
7	0	0	0	0	508	509	0	451	39	2	
8	0	0	0	0	503	510	0	469	39	2	
9	0	0	0	0	503	509	0	481	39	2	
10	0	0	0	0	515	511	0	494	39	2	
11	0	0	0	0	508	510	0	499	39	2	
12	0	0	0	0	505	509	0	499	39	2	
13	0	0	0	0	511	510	0	497	39	2	
14	0	0	0	0	505	510	0	495	39	2	
15	0	0	0	0	513	509	0	488	39	2	
0	0	0	0	0	516	509	1	474	39	2	
1	0	0	0	0	513	510	0	471	39	2	
2	0	0	0	0	511	511	0	476	39	2	
3	0	0	0	0	515	510	0	491	39	2	
4	0	0	0	0	509	509	0	500	39	2	
5	0	0	0	0	513	510	0	500	39	2	
6	0	0	0	0	510	511	0	494	39	2	
7	0	0	0	0	508	511	0	494	39	2	
8	0	0	0	0	503	512	0	491	39	2	
9	0	0	0	0	501	511	0	481	39	2	
10	0	0	0	0	509	511	0	468	39	2	
11	0	0	0	0	507	512	0	464	39	2	
12	0	0	0	0	517	510	0	467	38	2	
13	0	0	0	0	513	511	0	476	39	2	
14	0	0	0	0	512	511	0	490	39	2	
15	0	0	0	0	514	511	0	506	38	2	
0	0	0	0	0	510	511	1	516	39	2	
1	0	0	0	0	507	511	0	528	39	2	
2	0	0	0	0	515	511	0	542	39	2	
3	0	0	0	0	512	510	0	557	39	2	
4	0	0	0	0	515	511	0	566	38	2	
5	0	0	0	0	510	512	0	579	39	2	
6	0	0	0	0	506	512	0	590	39	2	
7	0	0	0	0	514	511	0	599	39	2	
8	0	0	0	0	509	512	0	598	39	2	
9	0	0	0	0	510	514	0	584	39	2	
10	0	0	0	0	512	514	0	572	39	2	
11	0	0	0	0	506	514	0	559	39	2	
12	0	0	0	0	502	513	0	544	39	2	
13	0	0	0	0	511	513	0	529	39	2	
14	0	0	0	0	511	513	0	516	39	2	
15	0	0	0	0	514	513	0	509	39	2	
0	0	0	0	0	508	515	0	507	39	2	
1	0	0	0	0	511	515	0	504	39	2	
2	0	0	0	0	512	514	0	497	39	2	
3	0	0	0	0	512	514	0	487	39	2	
4	0	0	0	0	516	511	0	465	38	2	
5	0	0	0	0	516	513	0	450	39	2	
6	0	0	0	0	511	515	0	441	39	2	
7	0	0	0	0	503	515	0	440	39	2	
8	0	0	0	0	511	513	1	444	39	2	
9	0	0	0	0	506	512	0	447	39	2	
10	0	0	0	0	508	510	0	453	39	2	
11	0	0	0	0	509	513	0	470	39	2	
12	0	0	0	0	503	512	1	486	39	2	
13	0	0	0	0	511	510	0	497	39	2	
14	0	0	0	0	509	510	0	473	39	2	
15	0	0	0	0	505	511	0	455	39	2	
0	0	0	0	0	513	513	0	438	39	2	
1	0	0	0	0	517	511	0	427	39	2	
2	0	0	0	0	517	512	0	423	39	2	
3	0	0	0	0	515	514	0	433	39	2	
4	0	0	0	0	513	514	1	455	39	2	
5	0	0	0	0	513	515	0	479	39	2	
6	0	0	0	0	512	514	0	502	39	2	
7	0	0	0	0	507	514	0	517	39	2	
8	0	0	0	0	508	512	1	523	39	2	
9	0	0	0	0	510	511	0	516	39	2	
10	0	0	0	0	512	514	0	494	39	2	
11	0	0	0	0	511	512	0	474	39	2	
12	0	0	0	0	502	513	1	455	39	2	
13	0	0	0	0	505	512	0	444	39	2	
14	0	0	0	0	503	512	0	446	39	2	
15	0	0	0	0	511	511	0	451	38	2	
0	0	0	0	0	519	510	1	454	38	2	
1	0	0	0	0	520	511	0	462	39	2	
2	0	0	0	0	508	512	0	467	39	2	
3	0	0	0	0	511	513	0	465	38	2	
4	0	0	0	0	513	512	0	457	39	2	
5	0	0	0	0	516	514	0	454	39	2	
6	0	0	0	0	507	512	0	451	38	2	
7	0	0	0	0	512	514	0	461	39	2	
8	0	0	0	0	511	515	1	466	39	2	
9	0	0	0	0	508	512	0	468	39	2	
10	0	0	0	0	510	513	0	476	39	2	
11	0	0	0	0	508	515	0	483	38	2	
12	0	0	0	0	506	516	1	494	39	2	
13	0	0	0	0	515	517	0	506	39	2	
14	0	0	0	0	512	516	0	513	39	2	
15	0	0	0	0	511	517	0	521	39	2	
0	0	0	0	0	508	516	1	529	39	2	
1	0	0	0	0	509	517	0	536	39	2	
2	0	0	0	0	509	518	0	536	39	2	
3	0	0	0	0	508	517	0	530	39	2	
4	0	0	0	0	508	515	1	525	39	2	
5	0	0	0	0	513	515	0	511	39	2	
6	0	0	0	0	514	515	0	488	39	2	
7	0	0	0	0	507	513	0	460	39	2	
8	0	0	0	0	514	511	0	437	39	2	
9	0	0	0	0	512	511	0	435	38	2	
10	0	0	0	0	507	511	0	449	39	2	
11	0	0	0	0	506	510	0	473	39	2	
12	0	0	0	0	504	512	1	500	39	2	
13	0	0	0	0	503	512	0	524	39	2	
14	0	0	0	0	511	512	0	543	39	2	
15	0	0	0	0	506	511	0	549	38	2	
0	0	0	0	0	507	510	1	555	39	2	
1	0	0	0	0	514	507	0	556	39	2	
2	0	0	0	0	515	508	0	552	39	2	
3	0	0	0	0	513	508	0	556	38	2	
4	0	0	0	0	512	508	0	556	38	2	
5	0	0	0	0	515	508	0	550	39	2	
6	0	0	0	0	513	508	0	554	39	2	
7	0	0	0	0	515	509	0	560	39	2	
8	0	0	0	0	513	509	1	554	38	2	
9	0	0	0	0	505	508	0	549	39	2	
10	0	0	0	0	509	507	0	547	39	2	
11	0	0	0	0	505	510	0	543	38	2	
12	0	0	0	0	502	509	0	534	39	2	
13	0	0	0	0	512	508	0	525	39	2	
14	0	0	0	0	510	508	0	523	39	2	
15	0	0	0	0	507	510	0	528	39	2	
0	0	0	0	0	513	511	1	547	39	2	
1	0	0	0	0	506	509	0	565	39	2	
2	0	0	0	0	511	509	0	567	39	2	
3	0	0	0	0	512	510	0	562	39	2	
4	0	0	0	0	513	511	0	553	39	2	
5	0	0	0	0	515	510	0	547	39	2	
6	0	0	0	0	515	511	0	541	39	2	
7	0	0	0	0	517	512	0	539	39	2	
8	0	0	0	0	509	514	1	537	38	2	
9	0	0	0	0	511	513	0	540	39	2	
10	0	0	0	0	504	514	0	540	39	2	
11	0	0	0	0	510	515	0	524	39	2	
12	0	0	0	0	509	514	0	500	38	2	
13	0	0	0	0	503	511	0	486	39	2	
14	0	0	0	0	507	511	0	477	39	2	
15	0	0	0	0	508	512	0	472	39	2	
0	0	0	0	0	509	513	1	465	39	2	
1	0	0	0	0	511	511	0	469	39	2	
2	0	0	0	0	513	512	0	477	39	2	
3	0	0	0	0	511	512	0	482	39	2	
4	0	0	0	0	511	512	0	477	39	2	
5	0	0	0	0	515	512	0	482	39	2	
6	0	0	0	0	516	512	0	465	39	2	
7	0	0	0	0	511	512	0	457	38	2	
8	0	0	0	0	516	512	0	456	39	2	
9	0	0	0	0	506	514	0	455	39	2	
10	0	0	0	0	506	514	0	450	39	2	
11	0	0	0	0	510	515	0	445	39	2	
12	0	0	0	0	509	515	1	450	39	2	
13	0	0	0	0	509	512	0	465	39	2	
14	0	0	0	0	512	511	0	483	39	2	
15	0	0	0	0	511	512	0	504	39	2	
0	0	0	0	0	511	512	1	515	39	2	
1	0	0	0	0	510	513	0	522	39	2	
2	0	0	0	0	512	512	0	522	39	2	
3	0	0	0	0	512	513	0	520	39	2	
4	0	0	0	0	509	513	0	522	39	2	
5	0	0	0	0	509	512	0	521	39	2	
6	0	0	0	0	509	512	0	514	39	2	
7	0	0	0	0	519	512	0	508	39	2	
8	0	0	0	0	513	512	0	509	39	2	
9	0	0	0	0	512	511	0	512	39	2	
10	0	0	0	0	510	512	0	510	39	2	
11	0	0	0	0	510	514	0	501	39	2	
12	0	0	0	0	508	515	1	494	39	2	
13	0	0	0	0	509	512	0	494	39	2	
14	0	0	0	0	510	511	0	490	39	2	
15	0	0	0	0	504	510	0	488	39	2	
0	0	0	0	0	507	512	1	484	39	2	
1	0	0	0	0	506	511	0	486	39	2	
2	0	0	0	0	503	512	0	495	39	2	
3	0	0	0	0	514	513	0	497	39	2	
4	0	0	0	0	512	513	0	487	39	2	
5	0	0	0	0	512	512	0	485	39	2	
6	0	0	0	0	514	512	0	482	39	2	
7	0	0	0	0	512	511	0	483	39	2	
8	0	0	0	0	510	513	1	480	39	2	
9	0	0	0	0	512	514	0	477	39	2	
10	0	0	0	0	510	514	0	472	39	2	
11	0	0	0	0	510	516	0	457	39	2	
12	0	0	0	0	514	516	1	435	39	2	
13	0	0	0	0	510	515	0	420	39	2	
14	0	0	0	0	505	516	0	412	39	2	
15	0	0	0	0	508	516	0	411	39	2	
0	0	0	0	0	509	515	1	400	39	2	
1	0	0	0	0	503	515	0	393	39	2	
2	0	0	0	0	506	514	0	387	39	2	
3	0	0	0	0	506	513	0	387	39	2	
4	0	0	0	0	509	514	1	384	39	2	
5	0	0	0	0	513	513	0	375	39	2	
6	0	0	0	0	512	512	0	370	39	2	
7	0	0	0	0	513	511	0	377	38	2	
8	0	0	0	0	519	512	1	393	39	2	
9	0	0	0	0	513	512	0	412	39	2	
10	0	0	0	0	514	513	0	431	39	2	
11	0	0	0	0	516	513	0	442	39	2	
12	0	0	0	0	510	513	0	444	38	2	
13	0	0	0	0	505	512	0	440	39	2	
14	0	0	0	0	507	511	0	431	39	2	
15	0	0	0	0	507	512	0	428	39	2	
0	0	0	0	0	502	511	1	427	39	2	
1	0	0	0	0	505	512	0	430	39	2	
2	0	0	0	0	509	514	0	444	39	2	
3	0	0	0	0	510	513	0	453	38	2	
4	0	0	0	0	509	513	1	465	39	2	
5	0	0	0	0	505	511	0	482	39	2	
6	0	0	0	0	515	512	0	502	39	2	
7	0	0	0	0	515	514	0	517	39	2	
8	0	0	0	0	513	514	0	518	39	2	
9	0	0	0	0	510	515	0	500	39	2	
10	0	0	0	0	511	513	0	472	39	2	
11	0	0	0	0	514	513	0	451	39	2	
12	0	0	0	0	507	513	1	443	39	2	
13	0	0	0	0	500	512	0	444	39	2	
14	0	0	0	0	515	513	0	453	39	2	
15	0	0	0	0	511	512	0	472	38	2	
0	0	0	0	0	507	509	0	491	39	2	
1	0	0	0	0	504	509	0	509	39	2	
2	0	0	0	0	505	511	0	537	39	2	
3	0	0	0	0	512	512	0	562	39	2	
4	0	0	0	0	516	511	0	580	39	2	
5	0	0	0	0	509	511	0	588	39	2	
6	0	0	0	0	511	511	0	589	39	2	
7	0	0	0	0	506	510	0	596	39	2	
8	0	0	0	0	515	511	0	599	39	2	
9	0	0	0	0	518	511	0	603	39	2	
10	0	0	0	0	518	512	0	615	39	2	
11	0	0	0	0	517	513	0	632	39	2	
12	0	0	0	0	511	511	1	639	39	2	
13	0	0	0	0	512	510	0	639	39	2	
14	0	0	0	0	506	512	0	647	39	2	
15	0	0	0	0	511	513	0	666	39	2	
0	0	0	0	0	502	511	1	680	39	2	
1	0	0	0	0	502	511	0	691	39	2	
2	0	0	0	0	506	511	0	665	39	2	
3	0	0	0	0	510	510	0	654	38	2	
4	0	0	0	0	508	511	0	644	39	2	
5	0	0	0	0	508	511	0	629	39	2	
6	0	0	0	0	512	510	0	606	39	2	
7	0	0	0	0	505	511	0	579	39	2	
8	0	0	0	0	510	509	1	555	39	2	
9	0	0	0	0	514	509	0	534	39	2	
10	0	0	0	0	514	509	0	535	39	2	
11	0	0	0	0	512	512	0	542	39	2	
12	0	0	0	0	509	512	0	558	39	2	
13	0	0	0	0	514	512	0	567	39	2	
14	0	0	0	0	513	513	0	576	39	2	
15	0	0	0	0	509	514	0	584	39	2	
0	0	0	0	0	508	514	1	587	39	2	
1	0	0	0	0	511	512	0	583	39	2	
2	0	0	0	0	500	512	0	568	39	2	
3	0	0	0	0	505	513	0	540	39	2	
4	0	0	0	0	510	511	1	509	39	2	
5	0	0	0	0	511	511	0	496	39	2	
6	0	0	0	0	511	511	0	498	39	2	
7	0	0	0	0	505	512	0	517	39	2	
8	0	0	0	0	518	511	1	546	39	2	
9	0	0	0	0	512	508	0	561	39	2	
10	0	0	0	0	511	509	0	560	39	2	
11	0	0	0	0	518	510	0	558	39	2	
12	0	0	0	0	516	508	0	568	38	2	
13	0	0	0	0	509	511	0	588	39	2	
14	0	0	0	0	509	510	0	615	39	2	
15	0	0	0	0	519	510	0	642	39	2	
0	0	0	0	0	500	509	1	668	39	2	
1	0	0	0	0	515	511	0	680	39	2	
2	0	0	0	0	506	513	0	685	39	2	
3	0	0	0	0	505	514	0	656	39	2	
4	0	0	0	0	513	515	1	657	39	2	
5	0	0	0	0	503	511	0	659	39	2	
6	0	0	0	0	503	513	0	639	39	2	
7	0	0	0	0	510	515	0	602	39	2	
8	0	0	0	0	518	514	1	568	38	2	
9	0	0	0	0	507	512	0	541	39	2	
10	0	0	0	0	513	515	0	525	39	2	
11	0	0	0	0	509	516	0	520	38	2	
12	0	0	0	0	519	514	1	520	39	2	
13	0	0	0	0	515	515	0	500	39	2	
14	0	0	0	0	514	515	0	478	39	2	
15	0	0	0	0	510	513	0	476	39	2	
0	0	0	0	0	513	513	1	497	39	2	
1	0	0	0	0	508	513	0	540	39	2	
2	0	0	0	0	507	512	0	574	39	2	
3	0	0	0	0	507	513	0	607	38	2	
4	0	0	0	0	504	510	1	647	39	2	
5	0	0	0	0	508	509	0	665	39	2	
6	0	0	0	0	511	510	0	662	39	2	
7	0	0	0	0	507	511	0	658	39	2	
8	0	0	0	0	512	511	1	668	39	2	
9	0	0	0	0	518	511	0	677	39	2	
10	0	0	0	0	512	511	0	681	39	2	
11	0	0	0	0	505	512	0	684	39	2	
12	0	0	0	0	513	513	0	689	38	2	
13	0	0	0	0	512	512	0	702	39	2	
14	0	0	0	0	508	511	0	728	39	2	
15	0	0	0	0	513	512	0	732	39	2	
0	0	0	0	0	514	514	1	742	39	2	
1	0	0	0	0	512	512	0	761	39	2	
2	0	0	0	0	513	513	0	779	39	2	
3	0	0	0	0	505	513	0	784	39	2	
4	0	0	0	0	508	512	1	786	39	2	
5	0	0	0	0	503	512	0	782	39	2	
6	0	0	0	0	514	512	0	773	39	2	
7	0	0	0	0	507	512	0	756	38	2	
8	0	0	0	0	512	511	1	730	39	2	
9	0	0	0	0	511	512	0	721	39	2	
10	0	0	0	0	511	511	0	735	39	2	
11	0	0	0	0	518	511	0	731	39	2	
12	0	0	0	0	511	509	1	719	39	2	
13	0	0	0	0	511	510	0	715	39	2	
14	0	0	0	0	516	513	0	706	39	2	
15	0	0	0	0	508	514	0	685	39	2	
0	0	0	0	0	513	514	0	665	39	2	
1	0	0	0	0	513	515	0	644	39	2	
2	0	0	0	0	516	514	0	617	39	2	
3	0	0	0	0	508	516	0	581	39	2	
4	0	0	0	0	503	515	1	543	39	2	
5	0	0	0	0	504	515	0	510	39	2	
6	0	0	0	0	506	515	0	491	39	2	
7	0	0	0	0	508	514	0	496	39	2	
8	0	0	0	0	508	513	1	494	39	2	
9	0	0	0	0	506	512	0	474	39	2	
10	0	0	0	0	506	514	0	431	39	2	
11	0	0	0	0	511	516	0	394	39	2	
12	0	0	0	0	510	515	0	350	39	2	
13	0	0	0	0	509	514	0	325	39	2	
14	0	0	0	0	515	512	0	304	39	2	
15	0	0	0	0	514	512	0	275	39	2	
0	0	0	0	0	511	511	1	242	39	2	
1	0	0	0	0	511	512	0	213	39	2	
2	0	0	0	0	510	512	0	182	39	2	
3	0	0	0	0	504	512	0	158	39	2	
4	0	0	0	0	514	513	1	133	39	2	
5	0	0	0	0	506	513	0	115	39	2	
6	0	0	0	0	505	512	0	99	39	2	
7	0	0	0	0	512	511	0	87	39	2	
8	0	0	0	0	508	513	0	78	39	2	
9	0	0	0	0	509	512	0	78	39	2	
10	0	0	0	0	516	512	0	82	39	2	
11	0	0	0	0	511	512	0	82	39	2	
12	0	0	0	0	514	513	1	72	39	2	
13	0	0	0	0	513	512	0	62	39	2	
14	0	0	0	0	512	512	0	53	39	2	
15	0	0	0	0	513	511	0	47	39	2	
0	0	0	0	0	507	510	1	46	38	2	
1	0	0	0	0	513	512	0	49	39	2	
2	0	0	0	0	511	512	0	58	39	2	
3	0	0	0	0	506	514	0	74	39	2	
4	0	0	0	0	508	514	1	92	39	2	
5	0	0	0	0	513	514	0	111	39	2	
6	0	0	0	0	505	513	0	123	39	2	
7	0	0	0	0	505	513	0	141	39	2	
8	0	0	0	0	508	512	0	160	39	2	
9	0	0	0	0	509	512	0	183	39	2	
10	0	0	0	0	510	511	0	208	39	2	
11	0	0	0	0	509	513	0	227	39	2	
12	0	0	0	0	512	513	1	230	39	2	
13	0	0	0	0	511	511	0	233	39	2	
14	0	0	0	0	513	513	0	249	39	2	
15	0	0	0	0	514	512	0	279	39	2	
0	0	0	0	0	511	512	0	310	39	2	
1	0	0	0	0	506	511	0	344	39	2	
2	0	0	0	0	510	512	0	380	39	2	
3	0	0	0	0	509	511	0	410	39	2	
4	0	0	0	0	509	510	1	432	39	2	
5	0	0	0	0	505	510	0	449	39	2	
6	0	0	0	0	514	510	0	458	39	2	
7	0	0	0	0	508	510	0	460	39	2	
8	0	0	0	0	504	510	0	460	39	2	
9	0	0	0	0	511	509	0	474	39	2	
10	0	0	0	0	507	509	0	500	39	2	
11	0	0	0	0	513	509	0	531	38	2	
12	0	0	0	0	510	513	1	550	38	2	
13	0	0	0	0	510	511	0	552	39	2	
14	0	0	0	0	517	511	0	545	39	2	
15	0	0	0	0	516	511	0	537	39	2	
0	0	0	0	0	509	512	1	527	39	2	
1	0	0	0	0	512	511	0	512	39	2	
2	0	0	0	0	510	511	0	512	39	2	
3	0	0	0	0	502	514	0	518	39	2	
4	0	0	0	0	513	513	1	527	39	2	
5	0	0	0	0	511	511	0	536	39	2	
6	0	0	0	0	514	510	0	545	39	2	
7	0	0	0	0	514	511	0	558	39	2	
8	0	0	0	0	507	512	1	569	39	2	
9	0	0	0	0	505	508	0	579	39	2	
10	0	0	0	0	511	511	0	584	39	2	
11	0	0	0	0	517	512	0	585	39	2	
12	0	0	0	0	517	513	1	583	39	2	
13	0	0	0	0	513	513	0	574	39	2	
14	0	0	0	0	511	513	0	566	39	2	
15	0	0	0	0	511	514	0	569	38	2	
0	0	0	0	0	510	514	1	576	38	2	
1	0	0	0	0	502	514	0	585	38	2	
2	0	0	0	0	505	515	0	582	39	2	
3	0	0	0	0	510	513	0	579	39	2	
4	0	0	0	0	511	514	1	577	39	2	
5	0	0	0	0	510	512	0	582	39	2	
6	0	0	0	0	514	513	0	600	39	2	
7	0	0	0	0	517	513	0	613	39	2	
8	0	0	0	0	503	512	1	609	39	2	
9	0	0	0	0	504	511	0	601	39	2	
10	0	0	0	0	511	514	0	594	39	2	
11	0	0	0	0	510	514	0	582	39	2	
12	0	0	0	0	511	514	1	568	39	2	
13	0	0	0	0	507	513	0	558	39	2	
14	0	0	0	0	519	513	0	542	39	2	
15	0	0	0	0	508	515	0	542	39	2	
0	0	0	0	0	513	514	0	547	39	2	
1	0	0	0	0	514	515	0	552	39	2	
2	0	0	0	0	510	515	0	551	39	2	
3	0	0	0	0	512	515	0	543	39	2	
4	0	0	0	0	507	515	1	536	39	2	
5	0	0	0	0	513	515	0	526	39	2	
6	0	0	0	0	508	515	0	511	39	2	
7	0	0	0	0	504	513	0	496	39	2	
8	0	0	0	0	508	512	1	494	38	2	
9	0	0	0	0	512	510	0	513	39	2	
10	0	0	0	0	508	510	0	521	39	2	
11	0	0	0	0	507	510	0	531	38	2	
12	0	0	0	0	510	510	0	533	38	2	
13	0	0	0	0	507	509	0	537	39	2	
14	0	0	0	0	511	511	0	536	39	2	
15	0	0	0	0	516	511	0	527	39	2	
0	0	0	0	0	512	510	0	515	39	2	
1	0	0	0	0	513	511	0	506	39	2	
2	0	0	0	0	516	512	0	496	39	2	
3	0	0	0	0	512	513	0	496	38	2	
4	0	0	0	0	506	512	1	495	38	2	
5	0	0	0	0	505	511	0	487	39	2	
6	0	0	0	0	511	513	0	480	39	2	
7	0	0	0	0	502	515	0	472	39	2	
8	0	0	0	0	508	513	0	462	39	2	
9	0	0	0	0	506	511	0	456	39	2	
10	0	0	0	0	513	511	0	463	39	2	
11	0	0	0	0	507	514	0	465	39	2	
12	0	0	0	0	506	512	1	471	39	2	
13	0	0	0	0	512	511	0	487	39	2	
14	0	0	0	0	508	513	0	471	39	2	
15	0	0	0	0	508	512	0	468	39	2	
0	0	0	0	0	512	511	0	470	39	2	
1	0	0	0	0	513	513	0	472	39	2	
2	0	0	0	0	512	511	0	480	39	2	
3	0	0	0	0	517	511	0	476	38	2	
4	0	0	0	0	510	511	1	483	39	2	
5	0	0	0	0	511	510	0	493	39	2	
6	0	0	0	0	510	510	0	496	38	2	
7	0	0	0	0	510	512	0	495	39	2	
8	0	0	0	0	516	514	1	490	39	2	
9	0	0	0	0	506	514	0	504	39	2	
10	0	0	0	0	500	515	0	518	39	2	
11	0	0	0	0	512	515	0	528	38	2	
12	0	0	0	0	508	514	0	532	39	2	
13	0	0	0	0	511	513	0	535	39	2	
14	0	0	0	0	510	514	0	538	39	2	
15	0	0	0	0	511	516	0	543	39	2	
0	0	0	0	0	508	513	0	548	39	2	
1	0	0	0	0	510	513	0	548	39	2	
2	0	0	0	0	517	513	0	546	39	2	
3	0	0	0	0	515	514	0	544	39	2	
4	0	0	0	0	513	513	0	542	38	2	
5	0	0	0	0	511	514	0	544	39	2	
6	0	0	0	0	511	516	0	546	39	2	
7	0	0	0	0	509	516	0	526	39	2	
8	0	0	0	0	506	517	1	502	39	2	
9	0	0	0	0	507	515	0	480	39	2	
10	0	0	0	0	505	513	0	472	39	2	
11	0	0	0	0	511	514	0	476	39	2	
12	0	0	0	0	501	513	1	482	39	2	
13	0	0	0	0	511	511	0	489	39	2	
14	0	0	0	0	509	511	0	499	39	2	
15	0	0	0	0	514	510	0	511	39	2	
0	0	0	0	0	515	510	1	512	39	2	
1	0	0	0	0	514	511	0	513	38	2	
2	0	0	0	0	509	511	0	514	39	2	
3	0	0	0	0	516	512	0	515	39	2	
4	0	0	0	0	510	513	0	505	39	2	
5	0	0	0	0	507	514	0	498	39	2	
6	0	0	0	0	515	512	0	496	39	2	
7	0	0	0	0	514	513	0	499	39	2	
8	0	0	0	0	510	513	1	508	39	2	
9	0	0	0	0	505	513	0	521	39	2	
10	0	0	0	0	508	512	0	534	39	2	
11	0	0	0	0	505	512	0	543	38	2	
12	0	0	0	0	507	511	0	545	38	2	
13	0	0	0	0	505	512	0	551	39	2	
14	0	0	0	0	509	515	0	553	39	2	
15	0	0	0	0	509	515	0	542	39	2	
0	0	0	0	0	510	514	1	525	38	2	
1	0	0	0	0	513	512	0	521	39	2	
2	0	0	0	0	512	512	0	529	39	2	
3	0	0	0	0	507	513	0	533	39	2	
4	0	0	0	0	511	513	1	521	39	2	
5	0	0	0	0	511	513	0	519	39	2	
6	0	0	0	0	519	513	0	524	39	2	
7	0	0	0	0	517	511	0	528	39	2	
8	0	0	0	0	505	511	1	523	39	2	
9	0	0	0	0	505	508	0	511	39	2	
10	0	0	0	0	514	510	0	495	39	2	
11	0	0	0	0	507	511	0	485	39	2	
12	0	0	0	0	508	510	0	473	39	2	
13	0	0	0	0	513	510	0	459	39	2	
14	0	0	0	0	502	509	0	444	39	2	
15	0	0	0	0	511	510	0	429	39	2	
0	0	0	0	0	515	510	1	419	39	2	
1	0	0	0	0	510	509	0	424	39	2	
2	0	0	0	0	505	510	0	435	39	2	
3	0	0	0	0	502	511	0	440	38	2	
4	0	0	0	0	515	512	0	438	39	2	
5	0	0	0	0	511	511	0	438	39	2	
6	0	0	0	0	513	511	0	438	39	2	
7	0	0	0	0	512	511	0	436	39	2	
8	0	0	0	0	509	513	1	428	39	2	
9	0	0	0	0	509	513	0	427	39	2	
10	0	0	0	0	508	513	0	439	39	2	
11	0	0	0	0	505	514	0	455	38	2	
12	0	0	0	0	514	515	1	461	39	2	
13	0	0	0	0	500	512	0	471	39	2	
14	0	0	0	0	512	512	0	486	39	2	
15	0	0	0	0	512	511	0	498	38	2	
0	0	0	0	0	512	512	0	503	39	2	
1	0	0	0	0	512	511	0	503	39	2	
2	0	0	0	0	517	512	0	504	39	2	
3	0	0	0	0	518	514	0	503	39	2	
4	0	0	0	0	511	513	0	492	38	2	
5	0	0	0	0	513	514	0	482	39	2	
6	0	0	0	0	510	514	0	481	39	2	
7	0	0	0	0	512	515	0	483	39	2	
8	0	0	0	0	507	514	0	508	38	2	
9	0	0	0	0	508	513	0	505	38	2	
10	0	0	0	0	511	513	0	508	38	2	
11	0	0	0	0	500	512	0	505	39	2	
12	0	0	0	0	510	512	1	505	38	2	
13	0	0	0	0	511	511	0	512	39	2	
14	0	0	0	0	512	512	0	521	39	2	
15	0	0	0	0	508	511	0	533	39	2	
0	0	0	0	0	512	511	1	549	39	2	
1	0	0	0	0	512	511	0	564	39	2	
2	0	0	0	0	514	511	0	565	39	2	
3	0	0	0	0	511	513	0	549	39	2	
4	0	0	0	0	514	515	1	525	39	2	
5	0	0	0	0	505	510	0	509	39	2	
6	0	0	0	0	509	510	0	500	39	2	
7	0	0	0	0	510	512	0	498	39	2	
8	0	0	0	0	510	511	0	488	39	2	
9	0	0	0	0	508	509	0	468	39	2	
10	0	0	0	0	511	512	0	459	39	2	
11	0	0	0	0	511	512	0	455	38	2	
12	0	0	0	0	513	512	0	450	38	2	
13	0	0	0	0	507	512	0	435	39	2	
14	0	0	0	0	507	511	0	419	39	2	
15	0	0	0	0	503	513	0	411	39	2	
0	0	0	0	0	512	512	1	410	39	2	
1	0	0	0	0	509	512	0	410	39	2	
2	0	0	0	0	505	511	0	409	39	2	
3	0	0	0	0	513	512	0	411	39	2	
4	0	0	0	0	516	512	0	428	39	2	
5	0	0	0	0	518	512	0	443	39	2	
6	0	0	0	0	507	513	0	447	39	2	
7	0	0	0	0	509	515	0	447	39	2	
8	0	0	0	0	514	515	1	451	38	2	
9	0	0	0	0	510	513	0	453	39	2	
10	0	0	0	0	512	514	0	448	39	2	
11	0	0	0	0	515	515	0	445	38	2	
12	0	0	0	0	510	512	0	445	38	2	
13	0	0	0	0	513	511	0	443	39	2	
14	0	0	0	0	499	512	0	445	39	2	
15	0	0	0	0	505	513	0	455	39	2	
0	0	0	0	0	506	512	1	461	39	2	
1	0	0	0	0	507	512	0	466	39	2	
2	0	0	0	0	512	512	0	467	39	2	
3	0	0	0	0	512	514	0	468	39	2	
4	0	0	0	0	509	512	0	466	39	2	
5	0	0	0	0	506	513	0	468	39	2	
6	0	0	0	0	503	512	0	448	39	2	
7	0	0	0	0	515	513	0	441	39	2	
8	0	0	0	0	517	513	1	444	39	2	
9	0	0	0	0	510	512	0	430	39	2	
10	0	0	0	0	515	513	0	433	39	2	
11	0	0	0	0	512	512	0	438	38	2	
12	0	0	0	0	510	512	0	446	38	2	
13	0	0	0	0	510	512	0	452	39	2	
14	0	0	0	0	511	512	0	462	39	2	
15	0	0	0	0	507	512	0	467	38	2	
0	0	0	0	0	507	509	0	472	39	2	
1	0	0	0	0	502	511	0	475	39	2	
2	0	0	0	0	509	512	0	480	39	2	
3	0	0	0	0	514	511	0	484	39	2	
4	0	0	0	0	507	511	0	496	38	2	
5	0	0	0	0	518	510	0	507	39	2	
6	0	0	0	0	512	511	0	518	39	2	
7	0	0	0	0	514	512	0	520	39	2	
8	0	0	0	0	514	511	1	518	39	2	
9	0	0	0	0	508	512	0	511	39	2	
10	0	0	0	0	504	511	0	493	39	2	
11	0	0	0	0	511	512	0	476	39	2	
12	0	0	0	0	511	512	1	460	39	2	
13	0	0	0	0	510	512	0	456	39	2	
14	0	0	0	0	516	514	0	466	39	2	
15	0	0	0	0	513	515	0	494	39	2	
0	0	0	0	0	496	515	0	523	39	2	
1	0	0	0	0	504	512	0	557	39	2	
2	0	0	0	0	513	513	0	567	39	2	
3	0	0	0	0	510	512	0	587	39	2	
4	0	0	0	0	506	512	1	606	39	2	
5	0	0	0	0	505	512	0	614	39	2	
6	0	0	0	0	514	511	0	608	39	2	
7	0	0	0	0	516	513	0	591	38	2	
8	0	0	0	0	510	514	1	569	39	2	
9	0	0	0	0	513	515	0	552	39	2	
10	0	0	0	0	515	515	0	538	39	2	
11	0	0	0	0	510	513	0	528	39	2	
12	0	0	0	0	518	514	1	520	39	2	
13	0	0	0	0	511	514	0	512	39	2	
14	0	0	0	0	503	512	0	497	39	2	
15	0	0	0	0	513	514	0	496	39	2	
0	0	0	0	0	499	512	1	509	39	2	
1	0	0	0	0	504	513	0	519	39	2	
2	0	0	0	0	516	512	0	527	39	2	
3	0	0	0	0	508	512	0	539	39	2	
4	0	0	0	0	512	511	1	543	38	2	
5	0	0	0	0	512	509	0	550	39	2	
6	0	0	0	0	510	510	0	554	39	2	
7	0	0	0	0	518	512	0	554	39	2	
8	0	0	0	0	510	512	1	552	39	2	
9	0	0	0	0	511	511	0	555	39	2	
10	0	0	0	0	513	510	0	547	39	2	
11	0	0	0	0	512	513	0	540	39	2	
12	0	0	0	0	513	513	1	536	38	2	
13	0	0	0	0	507	515	0	541	39	2	
14	0	0	0	0	505	515	0	546	39	2	
15	0	0	0	0	516	515	0	545	39	2	
0	0	0	0	0	506	512	1	536	39	2	
1	0	0	0	0	507	512	0	524	39	2	
2	0	0	0	0	505	513	0	518	39	2	
3	0	0	0	0	505	512	0	508	39	2	
4	0	0	0	0	510	511	0	500	38	2	
5	0	0	0	0	510	510	0	500	39	2	
6	0	0	0	0	512	513	0	499	39	2	
7	0	0	0	0	515	516	0	483	39	2	
8	0	0	0	0	508	512	0	452	39	2	
9	0	0	0	0	511	512	0	430	39	2	
10	0	0	0	0	511	511	0	414	38	2	
11	0	0	0	0	518	512	0	407	38	2	
12	0	0	0	0	514	511	1	402	39	2	
13	0	0	0	0	512	513	0	399	39	2	
14	0	0	0	0	514	511	0	390	39	2	
15	0	0	0	0	518	513	0	386	39	2	
0	0	0	0	0	507	513	1	390	39	2	
1	0	0	0	0	508	512	0	408	39	2	
2	0	0	0	0	504	512	0	416	39	2	
3	0	0	0	0	499	513	0	423	39	2	
4	0	0	0	0	513	514	1	427	39	2	
5	0	0	0	0	505	512	0	443	39	2	
6	0	0	0	0	512	511	0	457	39	2	
7	0	0	0	0	508	512	0	457	39	2	
8	0	0	0	0	504	512	0	440	39	2	
9	0	0	0	0	512	511	0	422	39	2	
10	0	0	0	0	506	511	0	413	39	2	
11	0	0	0	0	517	512	0	415	39	2	
12	0	0	0	0	509	511	0	428	39	2	
13	0	0	0	0	516	511	0	449	39	2	
14	0	0	0	0	505	513	0	467	39	2	
15	0	0	0	0	512	514	0	482	38	2	
0	0	0	0	0	506	515	1	500	38	2	
1	0	0	0	0	511	513	0	529	38	2	
2	0	0	0	0	508	513	0	567	39	2	
3	0	0	0	0	508	513	0	606	39	2	
4	0	0	0	0	506	513	1	641	38	2	
5	0	0	0	0	509	512	0	674	39	2	
6	0	0	0	0	512	512	0	693	39	2	
7	0	0	0	0	505	513	0	703	39	2	
8	0	0	0	0	515	511	0	701	39	2	
9	0	0	0	0	519	511	0	683	39	2	
10	0	0	0	0	514	512	0	663	39	2	
11	0	0	0	0	515	511	0	652	38	2	
12	0	0	0	0	513	511	0	649	38	2	
13	0	0	0	0	510	510	0	645	39	2	
14	0	0	0	0	513	513	0	630	39	2	
15	0	0	0	0	513	511	0	612	39	2	
0	0	0	0	0	510	512	0	608	39	2	
1	0	0	0	0	507	510	0	615	39	2	
2	0	0	0	0	500	510	0	632	39	2	
3	0	0	0	0	508	511	0	653	38	2	
4	0	0	0	0	508	511	1	667	39	2	
5	0	0	0	0	503	510	0	673	39	2	
6	0	0	0	0	497	511	0	669	39	2	
7	0	0	0	0	513	513	0	671	39	2	
8	0	0	0	0	518	511	0	676	39	2	
9	0	0	0	0	514	511	0	685	39	2	
10	0	0	0	0	516	511	0	699	39	2	
11	0	0	0	0	514	513	0	726	39	2	
12	0	0	0	0	515	511	0	717	38	2	
13	0	0	0	0	509	511	0	707	39	2	
14	0	0	0	0	512	510	0	700	39	2	
15	0	0	0	0	514	512	0	696	38	2	
0	0	0	0	0	507	511	0	693	39	2	
1	0	0	0	0	509	509	0	682	39	2	
2	0	0	0	0	510	511	0	671	39	2	
3	0	0	0	0	504	511	0	664	39	2	
4	0	0	0	0	510	510	1	655	39	2	
5	0	0	0	0	505	508	0	659	39	2	
6	0	0	0	0	510	511	0	665	39	2	
7	0	0	0	0	508	512	0	675	39	2	
8	0	0	0	0	511	513	1	680	39	2	
9	0	0	0	0	513	511	0	684	39	2	
10	0	0	0	0	512	512	0	681	39	2	
11	0	0	0	0	506	512	0	681	39	2	
12	0	0	0	0	513	512	1	679	39	2	
13	0	0	0	0	519	512	0	677	39	2	
14	0	0	0	0	514	511	0	676	39	2	
15	0	0	0	0	513	511	0	682	38	2	
0	0	0	0	0	512	511	1	678	39	2	
1	0	0	0	0	507	510	0	676	39	2	
2	0	0	0	0	515	512	0	670	39	2	
3	0	0	0	0	512	512	0	657	38	2	
4	0	0	0	0	507	512	1	644	38	2	
5	0	0	0	0	507	512	0	630	39	2	
6	0	0	0	0	503	511	0	624	39	2	
7	0	0	0	0	506	511	0	613	39	2	
8	0	0	0	0	512	512	0	605	39	2	
9	0	0	0	0	507	510	0	605	39	2	
10	0	0	0	0	515	513	0	610	39	2	
11	0	0	0	0	520	515	0	620	39	2	
12	0	0	0	0	514	514	0	630	39	2	
13	0	0	0	0	503	514	0	635	39	2	
14	0	0	0	0	516	512	0	632	39	2	
15	0	0	0	0	514	513	0	623	39	2	
0	0	0	0	0	513	515	1	611	39	2	
1	0	0	0	0	507	513	0	601	39	2	
2	0	0	0	0	510	513	0	598	39	2	
3	0	0	0	0	502	513	0	596	39	2	
4	0	0	0	0	509	513	1	591	39	2	
5	0	0	0	0	507	512	0	589	39	2	
6	0	0	0	0	505	513	0	587	39	2	
7	0	0	0	0	502	512	0	590	39	2	
8	0	0	0	0	507	512	0	588	39	2	
9	0	0	0	0	513	510	0	586	39	2	
10	0	0	0	0	508	510	0	591	39	2	
11	0	0	0	0	510	511	0	572	39	2	
12	0	0	0	0	512	511	1	576	39	2	
13	0	0	0	0	514	510	0	585	39	2	
14	0	0	0	0	512	511	0	588	39	2	
15	0	0	0	0	511	511	0	597	39	2	
0	0	0	0	0	516	512	1	602	39	2	
1	0	0	0	0	514	510	0	610	39	2	
2	0	0	0	0	509	513	0	616	39	2	
3	0	0	0	0	511	512	0	618	38	2	
4	0	0	0	0	508	512	0	611	39	2	
5	0	0	0	0	506	513	0	599	39	2	
6	0	0	0	0	503	512	0	584	39	2	
7	0	0	0	0	507	513	0	577	39	2	
8	0	0	0	0	509	511	0	575	39	2	
9	0	0	0	0	507	510	0	585	39	2	
10	0	0	0	0	502	512	0	612	39	2	
11	0	0	0	0	513	513	0	644	38	2	
12	0	0	0	0	519	512	0	664	38	2	
13	0	0	0	0	515	515	0	661	39	2	
14	0	0	0	0	505	514	0	646	39	2	
15	0	0	0	0	511	514	0	633	39	2	
0	0	0	0	0	516	513	1	607	39	2	
1	0	0	0	0	508	515	0	587	39	2	
2	0	0	0	0	509	514	0	574	39	2	
3	0	0	0	0	508	514	0	575	38	2	
4	0	0	0	0	508	514	0	585	39	2	
5	0	0	0	0	511	513	0	600	39	2	
6	0	0	0	0	510	513	0	617	39	2	
7	0	0	0	0	506	513	0	634	39	2	
8	0	0	0	0	509	513	1	655	39	2	
9	0	0	0	0	511	511	0	645	39	2	
10	0	0	0	0	504	511	0	630	39	2	
11	0	0	0	0	512	513	0	610	38	2	
12	0	0	0	0	507	512	0	594	38	2	
13	0	0	0	0	515	514	0	587	39	2	
14	0	0	0	0	510	515	0	590	39	2	
15	0	0	0	0	514	515	0	594	39	2	
0	0	0	0	0	514	515	0	600	39	2	
1	0	0	0	0	508	515	0	609	38	2	
2	0	0	0	0	510	514	0	624	39	2	
3	0	0	0	0	508	515	0	635	38	2	
4	0	0	0	0	511	515	1	639	38	2	
5	0	0	0	0	513	514	0	643	39	2	
6	0	0	0	0	515	515	0	638	39	2	
7	0	0	0	0	511	514	0	630	39	2	
8	0	0	0	0	508	510	0	608	39	2	
9	0	0	0	0	498	509	0	584	39	2	
10	0	0	0	0	511	510	0	560	39	2	
11	0	0	0	0	516	512	0	541	39	2	
12	0	0	0	0	507	510	1	531	38	2	
13	0	0	0	0	506	512	0	526	39	2	
14	0	0	0	0	510	513	0	535	39	2	
15	0	0	0	0	511	512	0	555	39	2	
0	0	0	0	0	513	513	0	575	39	2	
1	0	0	0	0	512	513	0	585	39	2	
2	0	0	0	0	509	512	0	591	39	2	
3	0	0	0	0	503	514	0	590	39	2	
4	0	0	0	0	512	515	1	584	39	2	
5	0	0	0	0	510	511	0	578	39	2	
6	0	0	0	0	512	513	0	569	39	2	
7	0	0	0	0	509	512	0	560	39	2	
8	0	0	0	0	510	511	1	560	39	2	
9	0	0	0	0	511	511	0	570	39	2	
10	0	0	0	0	512	512	0	577	39	2	
11	0	0	0	0	505	513	0	588	39	2	
12	0	0	0	0	515	513	1	600	39	2	
13	0	0	0	0	505	513	0	610	39	2	
14	0	0	0	0	511	513	0	611	39	2	
15	0	0	0	0	512	514	0	607	39	2	
0	0	0	0	0	507	515	1	596	38	2	
1	0	0	0	0	511	512	0	585	39	2	
2	0	0	0	0	514	515	0	575	39	2	
3	0	0	0	0	514	516	0	575	39	2	
4	0	0	0	0	516	516	1	579	38	2	
5	0	0	0	0	509	515	0	590	39	2	
6	0	0	0	0	510	511	0	596	39	2	
7	0	0	0	0	511	510	0	592	39	2	
8	0	0	0	0	508	511	0	590	39	2	
9	0	0	0	0	504	511	0	585	39	2	
10	0	0	0	0	511	511	0	582	39	2	
11	0	0	0	0	505	511	0	583	39	2	
12	0	0	0	0	509	512	1	583	39	2	
13	0	0	0	0	507	511	0	595	39	2	
14	0	0	0	0	512	510	0	587	39	2	
15	0	0	0	0	510	511	0	583	39	2	
0	0	0	0	0	505	510	0	589	39	2	
1	0	0	0	0	512	509	0	604	39	2	
2	0	0	0	0	510	507	0	615	39	2	
3	0	0	0	0	515	509	0	619	39	2	
4	0	0	0	0	513	509	1	623	39	2	
5	0	0	0	0	508	508	0	617	39	2	
6	0	0	0	0	511	508	0	615	39	2	
7	0	0	0	0	515	509	0	613	39	2	
8	0	0	0	0	505	510	0	611	39	2	
9	0	0	0	0	512	512	0	620	39	2	
10	0	0	0	0	510	514	0	632	39	2	
11	0	0	0	0	512	514	0	636	39	2	
12	0	0	0	0	509	512	0	631	38	2	
13	0	0	0	0	511	510	0	620	39	2	
14	0	0	0	0	507	510	0	617	39	2	
15	0	0	0	0	506	511	0	629	39	2	
0	0	0	0	0	510	512	1	604	39	2	
1	0	0	0	0	507	510	0	595	39	2	
2	0	0	0	0	519	510	0	586	39	2	
3	0	0	0	0	512	512	0	578	39	2	
4	0	0	0	0	513	511	0	574	39	2	
5	0	0	0	0	508	511	0	573	39	2	
6	0	0	0	0	513	513	0	569	39	2	
7	0	0	0	0	516	513	0	566	39	2	
8	0	0	0	0	507	515	1	563	39	2	
9	0	0	0	0	508	513	0	562	39	2	
10	0	0	0	0	501	512	0	557	39	2	
11	0	0	0	0	507	512	0	550	39	2	
12	0	0	0	0	513	511	1	550	38	2	
13	0	0	0	0	504	510	0	552	39	2	
14	0	0	0	0	508	509	0	564	39	2	
15	0	0	0	0	512	511	0	577	39	2	
0	0	0	0	0	509	509	0	566	39	2	
1	0	0	0	0	508	510	0	560	39	2	
2	0	0	0	0	517	512	0	560	39	2	
3	0	0	0	0	516	513	0	556	39	2	
4	0	0	0	0	509	514	1	548	39	2	
5	0	0	0	0	509	513	0	541	39	2	
6	0	0	0	0	505	512	0	533	39	2	
7	0	0	0	0	510	514	0	529	39	2	
8	0	0	0	0	508	514	0	531	39	2	
9	0	0	0	0	504	513	0	534	39	2	
10	0	0	0	0	512	513	0	539	39	2	
11	0	0	0	0	511	512	0	540	39	2	
12	0	0	0	0	508	510	1	529	39	2	
13	0	0	0	0	507	509	0	517	39	2	
14	0	0	0	0	505	510	0	505	39	2	
15	0	0	0	0	511	510	0	504	39	2	
0	0	0	0	0	505	508	0	507	39	2	
1	0	0	0	0	514	508	0	494	39	2	
2	0	0	0	0	510	509	0	481	39	2	
3	0	0	0	0	511	509	0	463	38	2	
4	0	0	0	0	509	509	1	444	39	2	
5	0	0	0	0	514	510	0	430	39	2	
6	0	0	0	0	516	510	0	411	39	2	
7	0	0	0	0	510	510	0	400	39	2	
8	0	0	0	0	513	509	0	401	39	2	
9	0	0	0	0	508	509	0	413	39	2	
10	0	0	0	0	511	510	0	431	39	2	
11	0	0	0	0	515	512	0	450	39	2	
12	0	0	0	0	511	511	1	465	39	2	
13	0	0	0	0	505	513	0	475	39	2	
14	0	0	0	0	506	511	0	483	39	2	
15	0	0	0	0	515	513	0	487	39	2	
0	0	0	0	0	508	510	0	486	39	2	
1	0	0	0	0	508	510	0	485	39	2	
2	0	0	0	0	513	510	0	481	39	2	
3	0	0	0	0	508	510	0	481	39	2	
4	0	0	0	0	512	510	1	483	39	2	
5	0	0	0	0	515	508	0	488	39	2	
6	0	0	0	0	510	512	0	492	39	2	
7	0	0	0	0	516	512	0	488	39	2	
8	0	0	0	0	513	511	0	473	39	2	
9	0	0	0	0	507	512	0	465	39	2	
10	0	0	0	0	508	513	0	463	39	2	
11	0	0	0	0	515	514	0	464	39	2	
12	0	0	0	0	510	514	0	477	39	2	
13	0	0	0	0	499	512	0	500	39	2	
14	0	0	0	0	509	515	0	525	39	2	
15	0	0	0	0	508	516	0	542	39	2	
0	0	0	0	0	513	515	0	551	39	2	
1	0	0	0	0	513	516	0	553	39	2	
2	0	0	0	0	511	514	0	567	39	2	
3	0	0	0	0	515	513	0	544	39	2	
4	0	0	0	0	508	514	1	536	38	2	
5	0	0	0	0	510	513	0	526	39	2	
6	0	0	0	0	508	513	0	521	39	2	
7	0	0	0	0	510	513	0	512	39	2	
8	0	0	0	0	512	514	0	499	39	2	
9	0	0	0	0	515	512	0	490	39	2	
10	0	0	0	0	512	511	0	487	39	2	
11	0	0	0	0	511	511	0	505	39	2	
12	0	0	0	0	510	512	1	489	39	2	
13	0	0	0	0	510	511	0	493	39	2	
14	0	0	0	0	509	511	0	500	39	2	
15	0	0	0	0	511	510	0	506	39	2	
0	0	0	0	0	505	510	1	515	39	2	
1	0	0	0	0	504	509	0	539	39	2	
2	0	0	0	0	511	508	0	538	39	2	
3	0	0	0	0	512	511	0	544	39	2	
4	0	0	0	0	508	511	0	549	38	2	
5	0	0	0	0	509	511	0	547	39	2	
6	0	0	0	0	519	513	0	548	39	2	
7	0	0	0	0	516	514	0	552	39	2	
8	0	0	0	0	519	513	1	550	39	2	
9	0	0	0	0	514	513	0	540	39	2	
10	0	0	0	0	508	511	0	516	39	2	
11	0	0	0	0	507	510	0	493	38	2	
12	0	0	0	0	506	512	1	472	38	2	
13	0	0	0	0	504	512	0	457	39	2	
14	0	0	0	0	511	511	0	458	39	2	
15	0	0	0	0	510	511	0	468	39	2	
0	0	0	0	0	507	512	1	481	39	2	
1	0	0	0	0	513	512	0	497	39	2	
2	0	0	0	0	513	513	0	522	39	2	
3	0	0	0	0	511	512	0	550	39	2	
4	0	0	0	0	513	511	1	565	39	2	
5	0	0	0	0	511	509	0	573	39	2	
6	0	0	0	0	507	511	0	573	39	2	
7	0	0	0	0	516	512	0	564	39	2	
8	0	0	0	0	516	512	1	556	39	2	
9	0	0	0	0	511	513	0	556	39	2	
10	0	0	0	0	502	513	0	546	39	2	
11	0	0	0	0	502	513	0	533	39	2	
12	0	0	0	0	514	514	1	515	38	2	
13	0	0	0	0	515	512	0	513	39	2	
14	0	0	0	0	509	513	0	519	39	2	
15	0	0	0	0	506	512	0	527	39	2	
0	0	0	0	0	507	513	1	541	39	2	
1	0	0	0	0	508	512	0	542	39	2	
2	0	0	0	0	508	512	0	551	39	2	
3	0	0	0	0	509	512	0	538	39	2	
4	0	0	0	0	504	511	0	532	39	2	
5	0	0	0	0	517	513	0	521	39	2	
6	0	0	0	0	511	510	0	522	39	2	
7	0	0	0	0	513	509	0	529	39	2	
8	0	0	0	0	512	509	0	542	39	2	
9	0	0	0	0	508	508	0	549	39	2	
10	0	0	0	0	507	510	0	553	39	2	
11	0	0	0	0	516	510	0	558	39	2	
12	0	0	0	0	508	509	1	558	39	2	
13	0	0	0	0	506	508	0	550	39	2	
14	0	0	0	0	508	510	0	537	39	2	
15	0	0	0	0	520	511	0	525	39	2	
0	0	0	0	0	508	512	1	519	39	2	
1	0	0	0	0	511	512	0	515	39	2	
2	0	0	0	0	517	512	0	499	39	2	
3	0	0	0	0	513	513	0	479	39	2	
4	0	0	0	0	514	511	0	469	39	2	
5	0	0	0	0	511	510	0	463	39	2	
6	0	0	0	0	504	509	0	457	39	2	
7	0	0	0	0	507	510	0	445	39	2	
8	0	0	0	0	512	512	0	428	39	2	
9	0	0	0	0	511	511	0	416	39	2	
10	0	0	0	0	511	512	0	418	39	2	
11	0	0	0	0	519	513	0	393	39	2	
12	0	0	0	0	510	515	1	395	39	2	
13	0	0	0	0	508	513	0	412	39	2	
14	0	0	0	0	512	512	0	422	39	2	
15	0	0	0	0	504	512	0	425	39	2	
0	0	0	0	0	506	512	0	432	39	2	
1	0	0	0	0	505	512	0	441	39	2	
2	0	0	0	0	508	512	0	449	39	2	
3	0	0	0	0	508	513	0	453	39	2	
4	0	0	0	0	510	511	0	446	39	2	
5	0	0	0	0	506	512	0	439	39	2	
6	0	0	0	0	508	512	0	431	39	2	
7	0	0	0	0	511	512	0	432	39	2	
8	0	0	0	0	506	512	0	431	39	2	
9	0	0	0	0	515	512	0	438	39	2	
10	0	0	0	0	513	512	0	440	39	2	
11	0	0	0	0	515	513	0	448	39	2	
12	0	0	0	0	505	514	1	460	39	2	
13	0	0	0	0	507	511	0	473	39	2	
14	0	0	0	0	514	511	0	468	39	2	
15	0	0	0	0	513	512	0	453	39	2	
0	0	0	0	0	511	513	1	441	39	2	
1	0	0	0	0	505	512	0	439	39	2	
2	0	0	0	0	504	513	0	439	39	2	
3	0	0	0	0	509	513	0	442	38	2	
4	0	0	0	0	509	512	0	444	39	2	
5	0	0	0	0	510	511	0	452	39	2	
6	0	0	0	0	519	511	0	457	38	2	
7	0	0	0	0	511	512	0	452	39	2	
8	0	0	0	0	512	511	0	436	39	2	
9	0	0	0	0	511	510	0	429	39	2	
10	0	0	0	0	519	510	0	426	39	2	
11	0	0	0	0	508	510	0	424	39	2	
12	0	0	0	0	510	512	1	430	39	2	
13	0	0	0	0	507	510	0	432	39	2	
14	0	0	0	0	508	510	0	436	39	2	
15	0	0	0	0	508	511	0	458	38	2	
0	0	0	0	0	503	508	0	489	39	2	
1	0	0	0	0	506	508	0	518	39	2	
2	0	0	0	0	512	508	0	535	39	2	
3	0	0	0	0	506	507	0	547	39	2	
4	0	0	0	0	504	509	1	548	39	2	
5	0	0	0	0	513	510	0	539	39	2	
6	0	0	0	0	512	512	0	530	39	2	
7	0	0	0	0	514	513	0	499	39	2	
8	0	0	0	0	511	512	0	477	39	2	
9	0	0	0	0	511	513	0	464	39	2	
10	0	0	0	0	513	515	0	461	39	2	
11	0	0	0	0	512	516	0	467	39	2	
12	0	0	0	0	512	517	1	470	39	2	
13	0	0	0	0	511	516	0	467	39	2	
14	0	0	0	0	509	516	0	463	39	2	
15	0	0	0	0	509	517	0	456	39	2	
0	0	0	0	0	501	516	1	453	39	2	
1	0	0	0	0	511	514	0	449	39	2	
2	0	0	0	0	507	512	0	444	39	2	
3	0	0	0	0	503	511	0	452	39	2	
4	0	0	0	0	506	510	1	464	39	2	
5	0	0	0	0	509	512	0	477	39	2	
6	0	0	0	0	517	513	0	489	39	2	
7	0	0	0	0	513	514	0	503	39	2	
8	0	0	0	0	508	514	1	517	39	2	
9	0	0	0	0	513	514	0	523	39	2	
10	0	0	0	0	514	512	0	520	39	2	
11	0	0	0	0	518	513	0	513	39	2	
12	0	0	0	0	510	511	1	504	39	2	
13	0	0	0	0	511	512	0	509	39	2	
14	0	0	0	0	514	514	0	520	39	2	
15	0	0	0	0	512	515	0	539	39	2	
0	0	0	0	0	504	515	1	556	38	2	
1	0	0	0	0	513	513	0	560	39	2	
2	0	0	0	0	505	511	0	568	39	2	
3	0	0	0	0	507	512	0	575	39	2	
4	0	0	0	0	508	511	1	563	39	2	
5	0	0	0	0	510	508	0	546	39	2	
6	0	0	0	0	510	509	0	542	39	2	
7	0	0	0	0	512	509	0	545	39	2	
8	0	0	0	0	509	510	1	546	39	2	
9	0	0	0	0	515	508	0	547	39	2	
10	0	0	0	0	510	508	0	550	39	2	
11	0	0	0	0	513	510	0	548	39	2	
12	0	0	0	0	514	510	0	541	38	2	
13	0	0	0	0	512	509	0	527	39	2	
14	0	0	0	0	517	509	0	500	39	2	
15	0	0	0	0	508	511	0	474	38	2	
0	0	0	0	0	514	507	0	457	39	2	
1	0	0	0	0	509	509	0	453	39	2	
2	0	0	0	0	504	511	0	451	39	2	
3	0	0	0	0	503	512	0	449	39	2	
4	0	0	0	0	505	509	1	454	39	2	
5	0	0	0	0	508	510	0	452	39	2	
6	0	0	0	0	509	510	0	458	39	2	
7	0	0	0	0	511	513	0	461	39	2	
8	0	0	0	0	513	514	1	462	39	2	
9	0	0	0	0	511	513	0	461	38	2	
10	0	0	0	0	510	514	0	471	39	2	
11	0	0	0	0	515	514	0	482	39	2	
12	0	0	0	0	510	513	0	492	39	2	
13	0	0	0	0	515	512	0	508	39	2	
14	0	0	0	0	515	513	0	523	39	2	
15	0	0	0	0	509	514	0	529	39	2	
0	0	0	0	0	504	511	0	523	39	2	
1	0	0	0	0	510	510	0	508	39	2	
2	0	0	0	0	514	511	0	499	39	2	
3	0	0	0	0	507	513	0	494	39	2	
4	0	0	0	0	507	512	1	497	39	2	
5	0	0	0	0	511	512	0	508	39	2	
6	0	0	0	0	504	512	0	508	39	2	
7	0	0	0	0	510	512	0	520	38	2	
8	0	0	0	0	507	512	1	541	39	2	
9	0	0	0	0	514	511	0	553	39	2	
10	0	0	0	0	522	512	0	552	39	2	
11	0	0	0	0	513	514	0	551	39	2	
12	0	0	0	0	519	515	1	553	39	2	
13	0	0	0	0	517	514	0	563	39	2	
14	0	0	0	0	507	514	0	576	39	2	
15	0	0	0	0	510	515	0	575	39	2	
0	0	0	0	0	504	514	1	559	39	2	
1	0	0	0	0	507	514	0	540	39	2	
2	0	0	0	0	512	513	0	531	39	2	
3	0	0	0	0	510	515	0	526	39	2	
4	0	0	0	0	498	516	1	528	39	2	
5	0	0	0	0	509	513	0	536	39	2	
6	0	0	0	0	512	513	0	542	39	2	
7	0	0	0	0	507	514	0	547	39	2	
8	0	0	0	0	511	513	0	541	39	2	
9	0	0	0	0	514	513	0	524	39	2	
10	0	0	0	0	509	514	0	517	39	2	
11	0	0	0	0	505	512	0	505	38	2	
12	0	0	0	0	514	511	1	505	39	2	
13	0	0	0	0	518	508	0	511	39	2	
14	0	0	0	0	515	510	0	526	39	2	
15	0	0	0	0	511	511	0	534	39	2	
0	0	0	0	0	511	510	0	531	39	2	
1	0	0	0	0	511	511	0	522	39	2	
2	0	0	0	0	507	510	0	516	39	2	
3	0	0	0	0	508	509	0	506	38	2	
4	0	0	0	0	508	510	1	497	38	2	
5	0	0	0	0	506	510	0	509	39	2	
6	0	0	0	0	504	512	0	524	39	2	
7	0	0	0	0	507	514	0	540	39	2	
8	0	0	0	0	502	513	1	557	39	2	
9	0	0	0	0	514	513	0	580	39	2	
10	0	0	0	0	521	513	0	598	39	2	
11	0	0	0	0	510	513	0	609	39	2	
12	0	0	0	0	512	513	0	622	38	2	
13	0	0	0	0	511	513	0	636	39	2	
14	0	0	0	0	518	515	0	640	39	2	
15	0	0	0	0	510	516	0	635	39	2	
0	0	0	0	0	510	518	1	636	39	2	
1	0	0	0	0	512	517	0	619	39	2	
2	0	0	0	0	511	517	0	614	39	2	
3	0	0	0	0	509	517	0	608	39	2	
4	0	0	0	0	518	515	1	606	39	2	
5	0	0	0	0	510	513	0	599	39	2	
6	0	0	0	0	502	513	0	583	39	2	
7	0	0	0	0	503	512	0	568	39	2	
8	0	0	0	0	509	511	0	551	39	2	
9	0	0	0	0	511	511	0	533	39	2	
10	0	0	0	0	515	511	0	517	39	2	
11	0	0	0	0	515	511	0	508	39	2	
12	0	0	0	0	515	510	1	505	38	2	
13	0	0	0	0	508	510	0	517	39	2	
14	0	0	0	0	515	511	0	536	39	2	
15	0	0	0	0	508	511	0	551	39	2	
0	0	0	0	0	505	513	0	548	39	2	
1	0	0	0	0	513	514	0	531	39	2	
2	0	0	0	0	515	514	0	504	39	2	
3	0	0	0	0	515	514	0	489	39	2	
4	0	0	0	0	502	514	1	486	39	2	
5	0	0	0	0	503	512	0	501	39	2	
6	0	0	0	0	509	512	0	525	39	2	
7	0	0	0	0	502	512	0	553	39	2	
8	0	0	0	0	505	512	0	591	39	2	
9	0	0	0	0	508	513	0	638	39	2	
10	0	0	0	0	512	512	0	679	39	2	
11	0	0	0	0	520	515	0	714	39	2	
12	0	0	0	0	510	513	1	733	38	2	
13	0	0	0	0	508	513	0	734	39	2	
14	0	0	0	0	511	510	0	728	39	2	
15	0	0	0	0	506	510	0	711	39	2	
0	0	0	0	0	514	510	1	687	39	2	
1	0	0	0	0	510	510	0	662	39	2	
2	0	0	0	0	510	512	0	636	39	2	
3	0	0	0	0	512	512	0	623	39	2	
4	0	0	0	0	517	512	1	616	39	2	
5	0	0	0	0	508	512	0	603	39	2	
6	0	0	0	0	509	513	0	582	39	2	
7	0	0	0	0	509	514	0	567	39	2	
8	0	0	0	0	505	513	1	561	39	2	
9	0	0	0	0	507	513	0	568	39	2	
10	0	0	0	0	507	511	0	576	39	2	
11	0	0	0	0	511	510	0	582	39	2	
12	0	0	0	0	511	511	1	582	39	2	
13	0	0	0	0	512	511	0	582	39	2	
14	0	0	0	0	515	512	0	582	39	2	
15	0	0	0	0	518	511	0	575	39	2	
0	0	0	0	0	511	511	1	563	39	2	
1	0	0	0	0	513	511	0	554	39	2	
2	0	0	0	0	512	512	0	544	39	2	
3	0	0	0	0	509	513	0	539	39	2	
4	0	0	0	0	510	512	0	532	39	2	
5	0	0	0	0	508	513	0	531	39	2	
6	0	0	0	0	515	513	0	537	39	2	
7	0	0	0	0	503	514	0	534	39	2	
8	0	0	0	0	501	512	0	540	39	2	
9	0	0	0	0	510	511	0	549	39	2	
10	0	0	0	0	501	512	0	557	39	2	
11	0	0	0	0	509	513	0	570	39	2	
12	0	0	0	0	512	514	1	585	39	2	
13	0	0	0	0	512	511	0	604	39	2	
14	0	0	0	0	520	513	0	603	39	2	
15	0	0	0	0	508	515	0	597	39	2	
0	0	0	0	0	515	515	1	597	39	2	
1	0	0	0	0	514	515	0	617	39	2	
2	0	0	0	0	512	515	0	610	39	2	
3	0	0	0	0	512	517	0	610	39	2	
4	0	0	0	0	509	517	1	606	39	2	
5	0	0	0	0	506	515	0	596	39	2	
6	0	0	0	0	511	516	0	577	39	2	
7	0	0	0	0	512	515	0	568	39	2	
8	0	0	0	0	508	513	1	561	39	2	
9	0	0	0	0	503	512	0	555	39	2	
10	0	0	0	0	506	512	0	559	39	2	
11	0	0	0	0	510	514	0	565	38	2	
12	0	0	0	0	504	513	0	564	38	2	
13	0	0	0	0	516	513	0	550	39	2	
14	0	0	0	0	515	513	0	541	39	2	
15	0	0	0	0	515	515	0	540	39	2	
0	0	0	0	0	515	512	1	515	39	2	
1	0	0	0	0	509	510	0	495	39	2	
2	0	0	0	0	518	511	0	478	39	2	
3	0	0	0	0	507	511	0	461	39	2	
4	0	0	0	0	510	513	1	454	38	2	
5	0	0	0	0	508	513	0	457	39	2	
6	0	0	0	0	507	513	0	460	39	2	
7	0	0	0	0	503	514	0	468	39	2	
8	0	0	0	0	507	515	0	480	39	2	
9	0	0	0	0	505	513	0	495	39	2	
10	0	0	0	0	507	514	0	507	39	2	
11	0	0	0	0	503	512	0	517	38	2	
12	0	0	0	0	510	510	0	538	39	2	
13	0	0	0	0	504	510	0	558	39	2	
14	0	0	0	0	518	511	0	566	39	2	
15	0	0	0	0	512	512	0	562	39	2	
0	0	0	0	0	510	510	0	553	39	2	
1	0	0	0	0	516	510	0	550	39	2	
2	0	0	0	0	514	511	0	556	39	2	
3	0	0	0	0	521	512	0	570	38	2	
4	0	0	0	0	506	513	1	571	38	2	
5	0	0	0	0	507	512	0	568	39	2	
6	0	0	0	0	511	511	0	569	39	2	
7	0	0	0	0	510	512	0	567	39	2	
8	0	0	0	0	513	511	1	554	39	2	
9	0	0	0	0	509	511	0	543	39	2	
10	0	0	0	0	509	513	0	532	39	2	
11	0	0	0	0	510	512	0	531	39	2	
12	0	0	0	0	510	516	1	528	39	2	
13	0	0	0	0	502	515	0	521	39	2	
14	0	0	0	0	513	515	0	515	39	2	
15	0	0	0	0	514	513	0	506	39	2	
0	0	0	0	0	515	512	0	491	39	2	
1	0	0	0	0	512	511	0	483	39	2	
2	0	0	0	0	514	510	0	485	39	2	
3	0	0	0	0	505	512	0	486	38	2	
4	0	0	0	0	512	511	0	487	38	2	
5	0	0	0	0	509	510	0	487	39	2	
6	0	0	0	0	509	511	0	475	39	2	
7	0	0	0	0	508	513	0	471	39	2	
8	0	0	0	0	501	512	0	458	39	2	
9	0	0	0	0	512	513	0	449	39	2	
10	0	0	0	0	513	513	0	445	39	2	
11	0	0	0	0	503	513	0	444	38	2	
12	0	0	0	0	509	514	1	446	39	2	
13	0	0	0	0	510	513	0	441	39	2	
14	0	0	0	0	514	511	0	434	39	2	
15	0	0	0	0	512	513	0	429	39	2	
0	0	0	0	0	510	513	0	423	39	2	
1	0	0	0	0	510	513	0	420	39	2	
2	0	0	0	0	514	515	0	424	39	2	
3	0	0	0	0	516	515	0	432	39	2	
4	0	0	0	0	512	515	1	459	39	2	
5	0	0	0	0	509	513	0	491	39	2	
6	0	0	0	0	512	514	0	520	39	2	
7	0	0	0	0	511	515	0	536	39	2	
8	0	0	0	0	506	516	1	538	38	2	
9	0	0	0	0	515	515	0	530	39	2	
10	0	0	0	0	515	513	0	513	39	2	
11	0	0	0	0	503	513	0	504	39	2	
12	0	0	0	0	503	514	1	501	39	2	
13	0	0	0	0	506	510	0	502	39	2	
14	0	0	0	0	515	510	0	507	39	2	
15	0	0	0	0	510	508	0	516	39	2	
0	0	0	0	0	509	510	0	525	39	2	
1	0	0	0	0	511	510	0	523	39	2	
2	0	0	0	0	515	510	0	513	39	2	
3	0	0	0	0	509	512	0	505	39	2	
4	0	0	0	0	515	511	0	505	38	2	
5	0	0	0	0	508	510	0	506	39	2	
6	0	0	0	0	517	513	0	505	39	2	
7	0	0	0	0	504	515	0	496	39	2	
8	0	0	0	0	507	515	0	488	39	2	
9	0	0	0	0	511	513	0	483	39	2	
10	0	0	0	0	511	513	0	485	39	2	
11	0	0	0	0	511	513	0	482	39	2	
12	0	0	0	0	504	511	0	481	39	2	
13	0	0	0	0	505	512	0	478	39	2	
14	0	0	0	0	515	513	0	483	39	2	
15	0	0	0	0	512	512	0	483	39	2	
0	0	0	0	0	507	511	1	472	38	2	
1	0	0	0	0	509	508	0	459	39	2	
2	0	0	0	0	508	509	0	447	39	2	
3	0	0	0	0	508	512	0	437	39	2	
4	0	0	0	0	520	511	1	433	39	2	
5	0	0	0	0	512	511	0	435	39	2	
6	0	0	0	0	512	512	0	428	39	2	
7	0	0	0	0	508	513	0	426	39	2	
8	0	0	0	0	513	515	0	428	39	2	
9	0	0	0	0	512	513	0	444	39	2	
10	0	0	0	0	511	515	0	455	39	2	
11	0	0	0	0	511	516	0	461	39	2	
12	0	0	0	0	504	514	0	457	39	2	
13	0	0	0	0	508	514	0	451	39	2	
14	0	0	0	0	512	516	0	441	39	2	
15	0	0	0	0	510	515	0	436	38	2	
0	0	0	0	0	510	514	1	432	39	2	
1	0	0	0	0	518	511	0	435	38	2	
2	0	0	0	0	508	511	0	440	39	2	
3	0	0	0	0	510	512	0	439	39	2	
4	0	0	0	0	510	512	1	436	39	2	
5	0	0	0	0	516	512	0	434	39	2	
6	0	0	0	0	507	512	0	440	39	2	
7	0	0	0	0	508	512	0	443	39	2	
8	0	0	0	0	512	512	1	447	38	2	
9	0	0	0	0	507	513	0	449	39	2	
10	0	0	0	0	510	512	0	454	39	2	
11	0	0	0	0	509	512	0	473	39	2	
12	0	0	0	0	506	509	1	481	39	2	
13	0	0	0	0	515	509	0	477	39	2	
14	0	0	0	0	514	510	0	469	39	2	
15	0	0	0	0	508	511	0	468	39	2	
0	0	0	0	0	513	512	0	469	39	2	
1	0	0	0	0	505	512	0	479	39	2	
2	0	0	0	0	503	511	0	487	39	2	
3	0	0	0	0	511	512	0	486	38	2	
4	0	0	0	0	507	512	1	481	39	2	
5	0	0	0	0	517	511	0	477	39	2	
6	0	0	0	0	520	510	0	480	39	2	
7	0	0	0	0	512	513	0	486	38	2	
8	0	0	0	0	515	514	1	488	38	2	
9	0	0	0	0	514	512	0	489	39	2	
10	0	0	0	0	510	512	0	483	39	2	
11	0	0	0	0	503	513	0	486	38	2	
12	0	0	0	0	507	513	0	489	38	2	
13	0	0	0	0	502	512	0	481	39	2	
14	0	0	0	0	505	514	0	463	39	2	
15	0	0	0	0	507	514	0	456	38	2	
0	0	0	0	0	513	512	0	459	39	2	
1	0	0	0	0	513	513	0	463	39	2	
2	0	0	0	0	510	514	0	466	39	2	
3	0	0	0	0	511	514	0	457	39	2	
4	0	0	0	0	515	513	0	443	39	2	
5	0	0	0	0	513	515	0	431	39	2	
6	0	0	0	0	514	515	0	423	39	2	
7	0	0	0	0	510	517	0	427	39	2	
8	0	0	0	0	509	516	1	427	39	2	
9	0	0	0	0	512	515	0	445	38	2	
10	0	0	0	0	507	515	0	461	39	2	
11	0	0	0	0	509	515	0	464	38	2	
12	0	0	0	0	507	515	0	458	39	2	
13	0	0	0	0	510	515	0	448	39	2	
14	0	0	0	0	513	513	0	443	39	2	
15	0	0	0	0	510	512	0	441	38	2	
0	0	0	0	0	508	511	0	443	39	2	
1	0	0	0	0	503	511	0	443	39	2	
2	0	0	0	0	509	511	0	450	39	2	
3	0	0	0	0	508	512	0	443	39	2	
4	0	0	0	0	512	511	0	450	38	2	
5	0	0	0	0	511	510	0	461	39	2	
6	0	0	0	0	508	510	0	472	39	2	
7	0	0	0	0	508	512	0	493	39	2	
8	0	0	0	0	515	513	1	495	39	2	
9	0	0	0	0	515	512	0	498	39	2	
10	0	0	0	0	510	513	0	496	39	2	
11	0	0	0	0	512	514	0	492	39	2	
12	0	0	0	0	508	513	1	476	38	2	
13	0	0	0	0	506	513	0	474	39	2	
14	0	0	0	0	509	514	0	454	39	2	
15	0	0	0	0	503	515	0	451	39	2	
0	0	0	0	0	511	514	0	457	39	2	
1	0	0	0	0	506	514	0	466	39	2	
2	0	0	0	0	504	515	0	474	39	2	
3	0	0	0	0	514	516	0	479	39	2	
4	0	0	0	0	514	516	0	482	38	2	
5	0	0	0	0	510	517	0	496	39	2	
6	0	0	0	0	506	516	0	513	39	2	
7	0	0	0	0	511	516	0	529	39	2	
8	0	0	0	0	514	515	1	540	39	2	
9	0	0	0	0	523	516	0	546	39	2	
10	0	0	0	0	513	516	0	551	39	2	
11	0	0	0	0	510	515	0	549	39	2	
12	0	0	0	0	515	516	1	544	39	2	
13	0	0	0	0	511	514	0	554	39	2	
14	0	0	0	0	504	515	0	551	39	2	
15	0	0	0	0	511	514	0	557	39	2	
0	0	0	0	0	508	515	1	560	38	2	
1	0	0	0	0	508	513	0	562	39	2	
2	0	0	0	0	511	512	0	561	39	2	
3	0	0	0	0	507	511	0	553	39	2	
4	0	0	0	0	511	511	1	540	39	2	
5	0	0	0	0	513	510	0	524	39	2	
6	0	0	0	0	513	509	0	516	39	2	
7	0	0	0	0	510	510	0	510	39	2	
8	0	0	0	0	509	511	1	516	39	2	
9	0	0	0	0	512	512	0	519	39	2	
10	0	0	0	0	505	512	0	513	39	2	
11	0	0	0	0	516	513	0	503	39	2	
12	0	0	0	0	517	514	1	485	39	2	
13	0	0	0	0	504	513	0	478	39	2	
14	0	0	0	0	505	514	0	480	39	2	
15	0	0	0	0	504	514	0	486	39	2	
0	0	0	0	0	504	513	1	491	39	2	
1	0	0	0	0	511	512	0	500	39	2	
2	0	0	0	0	508	512	0	508	39	2	
3	0	0	0	0	507	510	0	517	39	2	
4	0	0	0	0	511	512	1	518	39	2	
5	0	0	0	0	511	511	0	516	39	2	
6	0	0	0	0	514	511	0	510	39	2	
7	0	0	0	0	510	512	0	508	39	2	
8	0	0	0	0	514	511	1	507	39	2	
9	0	0	0	0	512	513	0	511	39	2	
10	0	0	0	0	516	513	0	519	39	2	
11	0	0	0	0	510	512	0	518	39	2	
12	0	0	0	0	513	512	1	503	39	2	
13	0	0	0	0	513	513	0	486	39	2	
14	0	0	0	0	513	512	0	460	39	2	
15	0	0	0	0	511	514	0	435	39	2	
0	0	0	0	0	514	513	0	416	39	2	
1	0	0	0	0	506	511	0	404	39	2	
2	0	0	0	0	507	514	0	398	39	2	
3	0	0	0	0	513	512	0	412	38	2	
4	0	0	0	0	509	510	0	423	38	2	
5	0	0	0	0	504	510	0	432	39	2	
6	0	0	0	0	509	511	0	444	39	2	
7	0	0	0	0	514	513	0	451	38	2	
8	0	0	0	0	513	514	1	460	39	2	
9	0	0	0	0	515	513	0	469	39	2	
10	0	0	0	0	512	512	0	481	39	2	
11	0	0	0	0	511	514	0	499	39	2	
12	0	0	0	0	514	512	0	506	39	2	
13	0	0	0	0	504	511	0	507	39	2	
14	0	0	0	0	507	511	0	516	39	2	
15	0	0	0	0	505	510	0	521	39	2	
0	0	0	0	0	507	512	1	524	39	2	
1	0	0	0	0	511	511	0	528	39	2	
2	0	0	0	0	511	511	0	529	39	2	
3	0	0	0	0	511	512	0	538	38	2	
4	0	0	0	0	511	512	1	542	39	2	
5	0	0	0	0	511	511	0	537	39	2	
6	0	0	0	0	510	511	0	524	39	2	
7	0	0	0	0	507	509	0	508	39	2	
8	0	0	0	0	504	510	1	487	39	2	
9	0	0	0	0	515	509	0	463	39	2	
10	0	0	0	0	516	509	0	450	39	2	
11	0	0	0	0	505	510	0	444	39	2	
12	0	0	0	0	515	509	0	445	39	2	
13	0	0	0	0	511	511	0	455	39	2	
14	0	0	0	0	512	511	0	464	39	2	
15	0	0	0	0	508	512	0	468	38	2	
0	0	0	0	0	503	512	1	460	39	2	
1	0	0	0	0	506	510	0	455	39	2	
2	0	0	0	0	507	511	0	464	39	2	
3	0	0	0	0	512	513	0	471	39	2	
4	0	0	0	0	511	512	0	481	39	2	
5	0	0	0	0	504	512	0	488	39	2	
6	0	0	0	0	509	510	0	493	39	2	
7	0	0	0	0	519	508	0	497	39	2	
8	0	0	0	0	513	508	0	502	39	2	
9	0	0	0	0	502	509	0	505	39	2	
10	0	0	0	0	512	511	0	505	39	2	
11	0	0	0	0	511	511	0	504	39	2	
12	0	0	0	0	518	512	1	499	39	2	
13	0	0	0	0	511	513	0	495	39	2	
14	0	0	0	0	515	514	0	496	39	2	
15	0	0	0	0	503	514	0	503	39	2	
0	0	0	0	0	509	514	1	505	39	2	
1	0	0	0	0	510	512	0	502	39	2	
2	0	0	0	0	511	512	0	498	39	2	
3	0	0	0	0	503	513	0	497	39	2	
4	0	0	0	0	511	513	1	494	39	2	
5	0	0	0	0	504	510	0	495	39	2	
6	0	0	0	0	505	510	0	490	39	2	
7	0	0	0	0	514	510	0	491	39	2	
8	0	0	0	0	511	509	0	499	39	2	
9	0	0	0	0	510	510	0	504	39	2	
10	0	0	0	0	519	511	0	508	39	2	
11	0	0	0	0	511	511	0	506	39	2	
12	0	0	0	0	516	514	1	500	39	2	
13	0	0	0	0	512	512	0	489	39	2	
14	0	0	0	0	516	513	0	476	39	2	
15	0	0	0	0	518	512	0	461	39	2	
0	0	0	0	0	507	512	1	449	39	2	
1	0	0	0	0	503	512	0	453	39	2	
2	0	0	0	0	510	511	0	472	39	2	
3	0	0	0	0	504	512	0	507	39	2	
4	0	0	0	0	510	512	0	539	39	2	
5	0	0	0	0	508	512	0	553	39	2	
6	0	0	0	0	505	511	0	551	39	2	
7	0	0	0	0	510	512	0	540	39	2	
8	0	0	0	0	511	512	1	523	39	2	
9	0	0	0	0	510	510	0	511	39	2	
10	0	0	0	0	514	511	0	499	39	2	
11	0	0	0	0	513	513	0	494	38	2	
12	0	0	0	0	513	512	1	498	39	2	
13	0	0	0	0	508	511	0	504	39	2	
14	0	0	0	0	510	511	0	506	39	2	
15	0	0	0	0	511	510	0	513	39	2	
0	0	0	0	0	512	509	0	518	39	2	
1	0	0	0	0	512	510	0	516	39	2	
2	0	0	0	0	502	511	0	511	39	2	
3	0	0	0	0	505	511	0	509	39	2	
4	0	0	0	0	508	513	1	512	38	2	
5	0	0	0	0	502	511	0	520	39	2	
6	0	0	0	0	505	511	0	532	39	2	
7	0	0	0	0	512	513	0	551	38	2	
8	0	0	0	0	513	513	1	558	39	2	
9	0	0	0	0	506	512	0	563	39	2	
10	0	0	0	0	513	512	0	563	39	2	
11	0	0	0	0	517	513	0	560	39	2	
12	0	0	0	0	513	513	1	555	38	2	
13	0	0	0	0	511	514	0	549	39	2	
14	0	0	0	0	514	513	0	540	39	2	
15	0	0	0	0	513	513	0	535	39	2	
0	0	0	0	0	517	515	1	535	39	2	
1	0	0	0	0	504	513	0	539	39	2	
2	0	0	0	0	509	513	0	550	39	2	
3	0	0	0	0	516	514	0	564	39	2	
4	0	0	0	0	512	513	0	574	39	2	
5	0	0	0	0	505	513	0	587	39	2	
6	0	0	0	0	505	513	0	599	39	2	
7	0	0	0	0	505	512	0	602	39	2	
8	0	0	0	0	511	511	1	594	39	2	
9	0	0	0	0	501	509	0	592	39	2	
10	0	0	0	0	510	508	0	591	39	2	
11	0	0	0	0	508	509	0	584	39	2	
12	0	0	0	0	511	510	1	564	39	2	
13	0	0	0	0	519	509	0	546	39	2	
14	0	0	0	0	511	510	0	526	39	2	
15	0	0	0	0	512	510	0	508	39	2	
0	0	0	0	0	514	511	0	484	39	2	
1	0	0	0	0	511	510	0	465	39	2	
2	0	0	0	0	508	510	0	448	39	2	
3	0	0	0	0	503	510	0	438	39	2	
4	0	0	0	0	511	511	0	428	39	2	
5	0	0	0	0	507	511	0	444	39	2	
6	0	0	0	0	501	511	0	440	39	2	
7	0	0	0	0	508	511	0	438	39	2	
8	0	0	0	0	508	513	0	448	39	2	
9	0	0	0	0	516	512	0	441	39	2	
10	0	0	0	0	511	512	0	449	39	2	
11	0	0	0	0	509	513	0	456	38	2	
12	0	0	0	0	509	513	0	456	38	2	
13	0	0	0	0	514	512	0	464	39	2	
14	0	0	0	0	512	513	0	478	39	2	
15	0	0	0	0	520	512	0	493	38	2	
0	0	0	0	0	515	513	0	501	39	2	
1	0	0	0	0	509	513	0	504	39	2	
2	0	0	0	0	512	514	0	506	39	2	
3	0	0	0	0	508	515	0	507	39	2	
4	0	0	0	0	503	514	0	493	39	2	
5	0	0	0	0	508	512	0	494	39	2	
6	0	0	0	0	510	512	0	476	39	2	
7	0	0	0	0	504	512	0	477	39	2	
8	0	0	0	0	513	512	1	487	39	2	
9	0	0	0	0	509	509	0	487	39	2	
10	0	0	0	0	505	509	0	486	39	2	
11	0	0	0	0	503	510	0	487	39	2	
12	0	0	0	0	511	512	0	484	39	2	
13	0	0	0	0	513	512	0	473	39	2	
14	0	0	0	0	512	510	0	452	39	2	
15	0	0	0	0	516	512	0	428	39	2	
0	0	0	0	0	510	513	1	415	38	2	
1	0	0	0	0	513	512	0	417	39	2	
2	0	0	0	0	510	512	0	418	39	2	
3	0	0	0	0	505	513	0	419	38	2	
4	0	0	0	0	504	513	1	409	39	2	
5	0	0	0	0	509	513	0	396	39	2	
6	0	0	0	0	515	513	0	383	39	2	
7	0	0	0	0	514	513	0	382	39	2	
8	0	0	0	0	499	513	1	384	39	2	
9	0	0	0	0	506	513	0	391	39	2	
10	0	0	0	0	504	513	0	408	39	2	
11	0	0	0	0	514	514	0	416	38	2	
12	0	0	0	0	512	513	1	413	38	2	
13	0	0	0	0	511	510	0	402	39	2	
14	0	0	0	0	510	510	0	391	39	2	
15	0	0	0	0	515	509	0	398	39	2	
0	0	0	0	0	515	509	0	417	39	2	
1	0	0	0	0	511	510	0	437	39	2	
2	0	0	0	0	515	512	0	462	39	2	
3	0	0	0	0	508	513	0	478	39	2	
4	0	0	0	0	511	513	1	484	39	2	
5	0	0	0	0	508	513	0	481	39	2	
6	0	0	0	0	513	514	0	465	39	2	
7	0	0	0	0	509	513	0	456	39	2	
8	0	0	0	0	507	512	1	454	39	2	
9	0	0	0	0	505	512	0	459	39	2	
10	0	0	0	0	511	514	0	463	39	2	
11	0	0	0	0	514	514	0	477	39	2	
12	0	0	0	0	504	514	0	487	39	2	
13	0	0	0	0	512	513	0	490	39	2	
14	0	0	0	0	513	513	0	485	39	2	
15	0	0	0	0	509	512	0	475	39	2	
0	0	0	0	0	516	513	1	467	39	2	
1	0	0	0	0	507	514	0	473	39	2	
2	0	0	0	0	518	515	0	456	39	2	
3	0	0	0	0	515	515	0	454	39	2	
4	0	0	0	0	508	515	0	446	39	2	
5	0	0	0	0	509	512	0	442	39	2	
6	0	0	0	0	507	513	0	431	39	2	
7	0	0	0	0	503	514	0	423	39	2	
8	0	0	0	0	510	512	0	427	39	2	
9	0	0	0	0	512	512	0	437	39	2	
10	0	0	0	0	513	511	0	440	39	2	
11	0	0	0	0	509	511	0	453	39	2	
12	0	0	0	0	505	509	0	470	38	2	
13	0	0	0	0	506	508	0	486	39	2	
14	0	0	0	0	513	510	0	489	39	2	
15	0	0	0	0	511	510	0	482	39	2	
0	0	0	0	0	507	508	0	467	39	2	
1	0	0	0	0	512	508	0	450	39	2	
2	0	0	0	0	516	509	0	440	39	2	
3	0	0	0	0	508	513	0	443	39	2	
4	0	0	0	0	508	514	0	446	39	2	
5	0	0	0	0	502	514	0	455	39	2	
6	0	0	0	0	515	514	0	463	39	2	
7	0	0	0	0	508	514	0	474	39	2	
8	0	0	0	0	505	514	0	474	39	2	
9	0	0	0	0	506	513	0	466	39	2	
10	0	0	0	0	506	513	0	459	39	2	
11	0	0	0	0	508	514	0	467	39	2	
12	0	0	0	0	512	513	1	474	39	2	
13	0	0	0	0	510	511	0	477	39	2	
14	0	0	0	0	510	514	0	481	39	2	
15	0	0	0	0	514	514	0	489	38	2	
0	0	0	0	0	510	514	1	493	39	2	
1	0	0	0	0	506	513	0	481	39	2	
2	0	0	0	0	505	513	0	471	39	2	
3	0	0	0	0	509	514	0	468	39	2	
4	0	0	0	0	506	512	0	476	38	2	
5	0	0	0	0	512	512	0	496	39	2	
6	0	0	0	0	512	514	0	526	39	2	
7	0	0	0	0	512	515	0	545	39	2	
8	0	0	0	0	511	515	1	547	39	2	
9	0	0	0	0	510	514	0	550	39	2	
10	0	0	0	0	506	512	0	553	39	2	
11	0	0	0	0	505	513	0	561	39	2	
12	0	0	0	0	508	513	0	569	39	2	
13	0	0	0	0	503	513	0	576	39	2	
14	0	0	0	0	510	513	0	591	39	2	
15	0	0	0	0	512	514	0	594	39	2	
0	0	0	0	0	514	514	1	587	39	2	
1	0	0	0	0	516	512	0	583	39	2	
2	0	0	0	0	508	511	0	571	39	2	
3	0	0	0	0	516	512	0	558	39	2	
4	0	0	0	0	512	513	0	547	39	2	
5	0	0	0	0	516	511	0	532	39	2	
6	0	0	0	0	502	513	0	522	39	2	
7	0	0	0	0	508	515	0	522	39	2	
8	0	0	0	0	513	513	0	523	39	2	
9	0	0	0	0	511	513	0	516	39	2	
10	0	0	0	0	503	511	0	509	39	2	
11	0	0	0	0	509	510	0	503	38	2	
12	0	0	0	0	504	513	1	495	39	2	
13	0	0	0	0	506	511	0	498	39	2	
14	0	0	0	0	511	512	0	507	39	2	
15	0	0	0	0	515	510	0	511	39	2	
0	0	0	0	0	512	511	1	512	38	2	
1	0	0	0	0	514	510	0	512	39	2	
2	0	0	0	0	511	509	0	514	39	2	
3	0	0	0	0	514	512	0	511	39	2	
4	0	0	0	0	513	513	1	510	39	2	
5	0	0	0	0	512	512	0	513	39	2	
6	0	0	0	0	507	510	0	522	39	2	
7	0	0	0	0	509	512	0	533	39	2	
8	0	0	0	0	504	512	0	539	39	2	
9	0	0	0	0	501	512	0	544	39	2	
10	0	0	0	0	514	512	0	543	39	2	
11	0	0	0	0	512	511	0	535	39	2	
12	0	0	0	0	509	511	1	526	39	2	
13	0	0	0	0	503	511	0	529	39	2	
14	0	0	0	0	509	511	0	519	39	2	
15	0	0	0	0	507	510	0	491	39	2	
0	0	0	0	0	515	510	0	465	39	2	
1	0	0	0	0	520	513	0	451	39	2	
2	0	0	0	0	511	513	0	442	39	2	
3	0	0	0	0	508	512	0	443	39	2	
4	0	0	0	0	506	513	0	436	38	2	
5	0	0	0	0	512	512	0	437	39	2	
6	0	0	0	0	515	512	0	444	39	2	
7	0	0	0	0	510	512	0	458	39	2	
8	0	0	0	0	508	513	0	451	39	2	
9	0	0	0	0	507	512	0	460	39	2	
10	0	0	0	0	510	513	0	451	39	2	
11	0	0	0	0	510	514	0	452	38	2	
12	0	0	0	0	511	512	0	447	38	2	
13	0	0	0	0	503	512	0	446	39	2	
14	0	0	0	0	512	511	0	459	39	2	
15	0	0	0	0	510	513	0	464	39	2	
0	0	0	0	0	503	511	1	468	38	2	
1	0	0	0	0	504	511	0	473	39	2	
2	0	0	0	0	511	509	0	481	39	2	
3	0	0	0	0	519	509	0	496	39	2	
4	0	0	0	0	516	509	1	500	39	2	
5	0	0	0	0	508	507	0	493	39	2	
6	0	0	0	0	515	507	0	482	39	2	
7	0	0	0	0	511	509	0	477	38	2	
8	0	0	0	0	514	508	0	476	39	2	
9	0	0	0	0	507	509	0	473	39	2	
10	0	0	0	0	509	509	0	476	39	2	
11	0	0	0	0	508	510	0	470	39	2	
12	0	0	0	0	508	509	1	470	39	2	
13	0	0	0	0	496	510	0	474	39	2	
14	0	0	0	0	512	509	0	479	39	2	
15	0	0	0	0	508	511	0	494	39	2	
0	0	0	0	0	507	511	0	510	39	2	
1	0	0	0	0	503	509	0	526	39	2	
2	0	0	0	0	515	510	0	530	39	2	
3	0	0	0	0	515	511	0	521	39	2	
4	0	0	0	0	515	511	1	510	39	2	
5	0	0	0	0	516	511	0	505	39	2	
6	0	0	0	0	509	512	0	506	39	2	
7	0	0	0	0	504	513	0	510	39	2	
8	0	0	0	0	509	512	1	509	39	2	
9	0	0	0	0	508	513	0	509	39	2	
10	0	0	0	0	509	512	0	513	39	2	
11	0	0	0	0	508	512	0	522	39	2	
12	0	0	0	0	504	512	0	531	39	2	
13	0	0	0	0	512	511	0	535	39	2	
14	0	0	0	0	516	511	0	534	39	2	
15	0	0	0	0	506	513	0	529	39	2	
0	0	0	0	0	511	511	0	523	39	2	
1	0	0	0	0	512	510	0	515	39	2	
2	0	0	0	0	511	510	0	504	39	2	
3	0	0	0	0	508	512	0	507	38	2	
4	0	0	0	0	506	511	1	514	39	2	
5	0	0	0	0	510	512	0	536	39	2	
6	0	0	0	0	511	514	0	558	39	2	
7	0	0	0	0	514	515	0	562	39	2	
8	0	0	0	0	517	513	0	556	39	2	
9	0	0	0	0	512	516	0	542	39	2	
10	0	0	0	0	507	515	0	524	39	2	
11	0	0	0	0	508	515	0	515	39	2	
12	0	0	0	0	504	512	0	513	38	2	
13	0	0	0	0	513	513	0	511	39	2	
14	0	0	0	0	505	510	0	515	39	2	
15	0	0	0	0	513	512	0	523	39	2	
0	0	0	0	0	505	511	1	532	39	2	
1	0	0	0	0	512	511	0	544	39	2	
2	0	0	0	0	511	509	0	546	39	2	
3	0	0	0	0	511	510	0	542	39	2	
4	0	0	0	0	508	509	0	534	39	2	
5	0	0	0	0	516	509	0	526	39	2	
6	0	0	0	0	508	510	0	523	39	2	
7	0	0	0	0	513	512	0	525	39	2	
8	0	0	0	0	516	511	0	519	39	2	
9	0	0	0	0	511	511	0	510	38	2	
10	0	0	0	0	508	513	0	499	39	2	
11	0	0	0	0	511	515	0	497	39	2	
12	0	0	0	0	508	515	1	491	38	2	
13	0	0	0	0	510	511	0	483	39	2	
14	0	0	0	0	507	510	0	492	39	2	
15	0	0	0	0	507	512	0	513	39	2	
0	0	0	0	0	500	508	1	542	39	2	
1	0	0	0	0	510	509	0	557	39	2	
2	0	0	0	0	517	510	0	569	39	2	
3	0	0	0	0	506	511	0	579	39	2	
4	0	0	0	0	515	510	1	573	39	2	
5	0	0	0	0	518	508	0	559	39	2	
6	0	0	0	0	511	510	0	540	38	2	
7	0	0	0	0	510	512	0	521	38	2	
8	0	0	0	0	512	512	1	504	39	2	
9	0	0	0	0	509	511	0	500	39	2	
10	0	0	0	0	514	512	0	499	39	2	
11	0	0	0	0	512	513	0	504	39	2	
12	0	0	0	0	505	514	1	507	39	2	
13	0	0	0	0	502	514	0	499	39	2	
14	0	0	0	0	508	512	0	490	39	2	
15	0	0	0	0	513	512	0	485	39	2	
0	0	0	0	0	514	512	1	492	39	2	
1	0	0	0	0	510	513	0	492	39	2	
2	0	0	0	0	516	511	0	484	39	2	
3	0	0	0	0	515	512	0	481	38	2	
4	0	0	0	0	505	512	0	485	38	2	
5	0	0	0	0	511	513	0	489	39	2	
6	0	0	0	0	511	511	0	480	39	2	
7	0	0	0	0	511	512	0	478	38	2	
8	0	0	0	0	514	512	1	488	39	2	
9	0	0	0	0	508	513	0	494	39	2	
10	0	0	0	0	511	513	0	490	39	2	
11	0	0	0	0	511	513	0	484	39	2	
12	0	0	0	0	509	513	1	482	39	2	
13	0	0	0	0	503	514	0	486	39	2	
14	0	0	0	0	512	513	0	500	39	2	
15	0	0	0	0	510	514	0	524	39	2	
0	0	0	0	0	505	513	0	544	39	2	
1	0	0	0	0	509	513	0	555	39	2	
2	0	0	0	0	510	514	0	557	39	2	
3	0	0	0	0	518	512	0	556	38	2	
4	0	0	0	0	510	512	1	556	39	2	
5	0	0	0	0	507	513	0	556	39	2	
6	0	0	0	0	509	512	0	561	39	2	
7	0	0	0	0	514	512	0	565	39	2	
8	0	0	0	0	512	512	1	564	39	2	
9	0	0	0	0	514	512	0	565	38	2	
10	0	0	0	0	516	512	0	574	39	2	
11	0	0	0	0	504	510	0	576	39	2	
12	0	0	0	0	506	510	1	566	39	2	
13	0	0	0	0	511	509	0	551	39	2	
14	0	0	0	0	513	512	0	534	39	2	
15	0	0	0	0	506	511	0	514	39	2	
0	0	0	0	0	507	510	1	497	39	2	
1	0	0	0	0	510	510	0	504	39	2	
2	0	0	0	0	509	512	0	491	39	2	
3	0	0	0	0	515	515	0	495	38	2	
4	0	0	0	0	507	512	0	494	39	2	
5	0	0	0	0	506	513	0	495	39	2	
6	0	0	0	0	513	513	0	495	39	2	
7	0	0	0	0	509	512	0	486	39	2	
8	0	0	0	0	515	514	0	467	39	2	
9	0	0	0	0	511	513	0	452	39	2	
10	0	0	0	0	506	514	0	456	39	2	
11	0	0	0	0	518	515	0	464	39	2	
12	0	0	0	0	525	514	1	473	39	2	
13	0	0	0	0	508	515	0	479	39	2	
14	0	0	0	0	508	515	0	492	39	2	
15	0	0	0	0	510	516	0	505	39	2	
0	0	0	0	0	502	513	0	512	39	2	
1	0	0	0	0	510	512	0	521	39	2	
2	0	0	0	0	514	511	0	528	39	2	
3	0	0	0	0	512	511	0	532	39	2	
4	0	0	0	0	500	512	1	524	39	2	
5	0	0	0	0	508	511	0	512	39	2	
6	0	0	0	0	511	512	0	497	39	2	
7	0	0	0	0	511	512	0	481	39	2	
8	0	0	0	0	513	512	1	464	39	2	
9	0	0	0	0	501	511	0	457	39	2	
10	0	0	0	0	511	511	0	456	39	2	
11	0	0	0	0	510	512	0	467	38	2	
12	0	0	0	0	519	511	1	481	39	2	
13	0	0	0	0	508	511	0	494	39	2	
14	0	0	0	0	507	509	0	485	39	2	
15	0	0	0	0	512	510	0	472	39	2	
0	0	0	0	0	513	509	1	457	39	2	
1	0	0	0	0	510	511	0	437	39	2	
2	0	0	0	0	506	512	0	427	39	2	
3	0	0	0	0	502	511	0	431	38	2	
4	0	0	0	0	511	511	1	451	39	2	
5	0	0	0	0	515	510	0	480	39	2	
6	0	0	0	0	512	512	0	512	39	2	
7	0	0	0	0	512	510	0	537	39	2	
8	0	0	0	0	510	510	1	547	39	2	
9	0	0	0	0	515	509	0	549	39	2	
10	0	0	0	0	516	509	0	550	39	2	
11	0	0	0	0	515	512	0	562	39	2	
12	0	0	0	0	512	511	0	580	39	2	
13	0	0	0	0	508	509	0	586	39	2	
14	0	0	0	0	505	510	0	587	39	2	
15	0	0	0	0	513	509	0	569	39	2	
0	0	0	0	0	509	510	1	548	39	2	
1	0	0	0	0	505	510	0	536	39	2	
2	0	0	0	0	505	510	0	520	39	2	
3	0	0	0	0	505	512	0	508	39	2	
4	0	0	0	0	503	511	0	502	38	2	
5	0	0	0	0	509	512	0	493	39	2	
6	0	0	0	0	517	512	0	481	39	2	
7	0	0	0	0	513	512	0	476	39	2	
8	0	0	0	0	516	514	0	467	39	2	
9	0	0	0	0	515	513	0	470	39	2	
10	0	0	0	0	516	514	0	462	39	2	
11	0	0	0	0	511	515	0	450	39	2	
12	0	0	0	0	505	515	0	440	39	2	
13	0	0	0	0	511	513	0	439	39	2	
14	0	0	0	0	517	512	0	446	39	2	
15	0	0	0	0	506	515	0	457	39	2	
0	0	0	0	0	511	512	1	467	39	2	
1	0	0	0	0	508	514	0	476	39	2	
2	0	0	0	0	512	512	0	481	39	2	
3	0	0	0	0	500	513	0	486	38	2	
4	0	0	0	0	503	513	1	486	39	2	
5	0	0	0	0	509	513	0	485	39	2	
6	0	0	0	0	507	512	0	479	39	2	
7	0	0	0	0	513	510	0	470	39	2	
8	0	0	0	0	512	509	0	458	39	2	
9	0	0	0	0	513	508	0	456	39	2	
10	0	0	0	0	510	509	0	461	39	2	
11	0	0	0	0	508	510	0	468	38	2	
12	0	0	0	0	509	510	0	479	39	2	
13	0	0	0	0	514	511	0	485	39	2	
14	0	0	0	0	514	510	0	482	39	2	
15	0	0	0	0	509	510	0	481	39	2	
0	0	0	0	0	507	508	1	477	38	2	
1	0	0	0	0	505	506	0	481	39	2	
2	0	0	0	0	508	507	0	495	39	2	
3	0	0	0	0	508	508	0	508	39	2	
4	0	0	0	0	511	508	1	514	39	2	
5	0	0	0	0	504	509	0	525	39	2	
6	0	0	0	0	509	510	0	538	39	2	
7	0	0	0	0	512	510	0	555	39	2	
8	0	0	0	0	512	511	1	570	39	2	
9	0	0	0	0	507	511	0	574	39	2	
10	0	0	0	0	508	513	0	579	39	2	
11	0	0	0	0	513	512	0	583	39	2	
12	0	0	0	0	515	512	1	581	39	2	
13	0	0	0	0	513	509	0	572	39	2	
14	0	0	0	0	514	509	0	557	39	2	
15	0	0	0	0	513	510	0	546	38	2	
0	0	0	0	0	518	510	0	542	39	2	
1	0	0	0	0	511	510	0	543	39	2	
2	0	0	0	0	511	511	0	562	39	2	
3	0	0	0	0	505	511	0	580	39	2	
4	0	0	0	0	503	510	1	586	39	2	
5	0	0	0	0	508	508	0	586	39	2	
6	0	0	0	0	512	509	0	580	39	2	
7	0	0	0	0	505	507	0	574	39	2	
8	0	0	0	0	508	505	0	572	39	2	
9	0	0	0	0	509	507	0	553	39	2	
10	0	0	0	0	508	509	0	550	39	2	
11	0	0	0	0	513	511	0	552	39	2	
12	0	0	0	0	506	510	1	550	39	2	
13	0	0	0	0	504	511	0	560	39	2	
14	0	0	0	0	514	511	0	577	39	2	
15	0	0	0	0	508	512	0	583	39	2	
0	0	0	0	0	508	513	1	578	39	2	
1	0	0	0	0	504	512	0	572	39	2	
2	0	0	0	0	510	514	0	546	39	2	
3	0	0	0	0	512	513	0	524	39	2	
4	0	0	0	0	503	513	1	515	39	2	
5	0	0	0	0	512	512	0	504	39	2	
6	0	0	0	0	503	512	0	501	39	2	
7	0	0	0	0	509	512	0	513	39	2	
8	0	0	0	0	510	511	1	536	39	2	
9	0	0	0	0	513	511	0	556	39	2	
10	0	0	0	0	510	513	0	562	39	2	
11	0	0	0	0	514	513	0	569	38	2	
12	0	0	0	0	517	513	1	576	38	2	
13	0	0	0	0	516	513	0	576	39	2	
14	0	0	0	0	508	515	0	564	39	2	
15	0	0	0	0	515	515	0	555	38	2	
0	0	0	0	0	507	513	1	544	39	2	
1	0	0	0	0	507	510	0	526	39	2	
2	0	0	0	0	512	511	0	514	39	2	
3	0	0	0	0	514	510	0	516	39	2	
4	0	0	0	0	505	511	0	529	39	2	
5	0	0	0	0	506	512	0	543	39	2	
6	0	0	0	0	505	510	0	552	39	2	
7	0	0	0	0	509	511	0	557	39	2	
8	0	0	0	0	510	511	0	559	39	2	
9	0	0	0	0	510	508	0	551	39	2	
10	0	0	0	0	512	509	0	542	39	2	
11	0	0	0	0	508	511	0	533	39	2	
12	0	0	0	0	515	510	0	524	38	2	
13	0	0	0	0	511	510	0	518	39	2	
14	0	0	0	0	512	512	0	516	39	2	
15	0	0	0	0	508	514	0	523	39	2	
0	0	0	0	0	518	514	1	535	39	2	
1	0	0	0	0	504	513	0	550	39	2	
2	0	0	0	0	516	513	0	560	39	2	
3	0	0	0	0	513	513	0	569	39	2	
4	0	0	0	0	507	512	1	560	39	2	
5	0	0	0	0	508	511	0	546	39	2	
6	0	0	0	0	504	512	0	531	39	2	
7	0	0	0	0	507	513	0	523	39	2	
8	0	0	0	0	508	512	1	513	39	2	
9	0	0	0	0	509	511	0	504	39	2	
10	0	0	0	0	507	511	0	492	39	2	
11	0	0	0	0	508	512	0	485	39	2	
12	0	0	0	0	514	513	0	475	39	2	
13	0	0	0	0	514	512	0	469	39	2	
14	0	0	0	0	516	512	0	471	39	2	
15	0	0	0	0	515	514	0	479	39	2	
0	0	0	0	0	516	511	0	489	39	2	
1	0	0	0	0	510	510	0	500	39	2	
2	0	0	0	0	509	511	0	510	39	2	
3	0	0	0	0	506	513	0	517	38	2	
4	0	0	0	0	508	513	1	521	39	2	
5	0	0	0	0	504	510	0	521	39	2	
6	0	0	0	0	504	511	0	521	39	2	
7	0	0	0	0	505	511	0	512	39	2	
8	0	0	0	0	504	508	0	510	39	2	
9	0	0	0	0	510	507	0	504	39	2	
10	0	0	0	0	510	508	0	502	39	2	
11	0	0	0	0	513	508	0	499	38	2	
12	0	0	0	0	512	508	0	498	38	2	
13	0	0	0	0	511	509	0	502	39	2	
14	0	0	0	0	515	509	0	502	39	2	
15	0	0	0	0	512	508	0	516	39	2	
0	0	0	0	0	512	510	1	529	39	2	
1	0	0	0	0	511	509	0	529	39	2	
2	0	0	0	0	519	510	0	525	39	2	
3	0	0	0	0	512	509	0	519	38	2	
4	0	0	0	0	508	509	0	516	38	2	
5	0	0	0	0	508	508	0	519	39	2	
6	0	0	0	0	511	509	0	514	39	2	
7	0	0	0	0	506	508	0	510	39	2	
8	0	0	0	0	508	509	0	505	38	2	
9	0	0	0	0	515	510	0	499	39	2	
10	0	0	0	0	515	508	0	494	39	2	
11	0	0	0	0	510	509	0	482	39	2	
12	0	0	0	0	504	511	1	482	39	2	
13	0	0	0	0	507	512	0	473	39	2	
14	0	0	0	0	513	513	0	494	39	2	
15	0	0	0	0	510	513	0	488	39	2	
0	0	0	0	0	510	515	1	489	39	2	
1	0	0	0	0	508	512	0	486	39	2	
2	0	0	0	0	514	514	0	480	39	2	
3	0	0	0	0	512	514	0	478	39	2	
4	0	0	0	0	512	514	1	473	39	2	
5	0	0	0	0	509	512	0	471	39	2	
6	0	0	0	0	508	513	0	471	39	2	
7	0	0	0	0	510	514	0	472	39	2	
8	0	0	0	0	508	513	0	476	39	2	
9	0	0	0	0	505	513	0	488	39	2	
10	0	0	0	0	508	512	0	507	39	2	
11	0	0	0	0	504	513	0	516	39	2	
12	0	0	0	0	513	514	1	509	39	2	
13	0	0	0	0	507	513	0	502	39	2	
14	0	0	0	0	515	513	0	497	39	2	
15	0	0	0	0	511	513	0	486	39	2	
0	0	0	0	0	503	512	0	466	39	2	
1	0	0	0	0	515	512	0	440	39	2	
2	0	0	0	0	513	511	0	420	39	2	
3	0	0	0	0	513	511	0	408	39	2	
4	0	0	0	0	512	511	0	395	39	2	
5	0	0	0	0	510	512	0	387	39	2	
6	0	0	0	0	506	512	0	396	39	2	
7	0	0	0	0	507	513	0	415	39	2	
8	0	0	0	0	510	513	0	434	39	2	
9	0	0	0	0	515	511	0	450	39	2	
10	0	0	0	0	513	511	0	466	39	2	
11	0	0	0	0	508	512	0	478	39	2	
12	0	0	0	0	504	512	1	480	39	2	
13	0	0	0	0	504	511	0	476	39	2	
14	0	0	0	0	515	511	0	476	39	2	
15	0	0	0	0	515	512	0	486	38	2	
0	0	0	0	0	513	510	1	489	39	2	
1	0	0	0	0	512	510	0	500	39	2	
2	0	0	0	0	513	510	0	513	39	2	
3	0	0	0	0	519	513	0	515	38	2	
4	0	0	0	0	512	513	1	508	39	2	
5	0	0	0	0	512	512	0	506	39	2	
6	0	0	0	0	508	513	0	514	39	2	
7	0	0	0	0	508	512	0	529	39	2	
8	0	0	0	0	510	512	0	537	39	2	
9	0	0	0	0	507	513	0	540	39	2	
10	0	0	0	0	507	515	0	545	39	2	
11	0	0	0	0	506	514	0	548	38	2	
12	0	0	0	0	514	511	0	550	38	2	
13	0	0	0	0	506	511	0	546	39	2	
14	0	0	0	0	510	510	0	551	39	2	
15	0	0	0	0	509	511	0	563	39	2	
0	0	0	0	0	512	510	0	573	39	2	
1	0	0	0	0	511	510	0	574	39	2	
2	0	0	0	0	507	510	0	569	39	2	
3	0	0	0	0	513	510	0	560	39	2	
4	0	0	0	0	513	510	1	539	39	2	
5	0	0	0	0	513	510	0	508	39	2	
6	0	0	0	0	512	512	0	493	39	2	
7	0	0	0	0	515	511	0	494	38	2	
8	0	0	0	0	502	512	1	500	38	2	
9	0	0	0	0	505	511	0	510	39	2	
10	0	0	0	0	509	511	0	519	39	2	
11	0	0	0	0	507	514	0	532	39	2	
12	0	0	0	0	509	514	1	541	39	2	
13	0	0	0	0	511	512	0	549	39	2	
14	0	0	0	0	513	511	0	546	39	2	
15	0	0	0	0	508	510	0	531	39	2	
0	0	0	0	0	505	510	0	505	39	2	
1	0	0	0	0	503	508	0	477	39	2	
2	0	0	0	0	508	510	0	444	39	2	
3	0	0	0	0	514	511	0	429	39	2	
4	0	0	0	0	505	513	1	429	39	2	
5	0	0	0	0	511	513	0	429	39	2	
6	0	0	0	0	513	514	0	427	39	2	
7	0	0	0	0	508	514	0	424	39	2	
8	0	0	0	0	514	514	0	422	39	2	
9	0	0	0	0	508	513	0	436	39	2	
10	0	0	0	0	509	513	0	449	39	2	
11	0	0	0	0	506	515	0	464	38	2	
12	0	0	0	0	504	513	1	472	38	2	
13	0	0	0	0	511	514	0	481	39	2	
14	0	0	0	0	512	512	0	479	39	2	
15	0	0	0	0	510	512	0	468	39	2	
0	0	0	0	0	511	511	0	457	39	2	
1	0	0	0	0	512	512	0	453	39	2	
2	0	0	0	0	513	513	0	455	39	2	
3	0	0	0	0	509	513	0	462	39	2	
4	0	0	0	0	517	514	0	478	39	2	
5	0	0	0	0	515	515	0	492	39	2	
6	0	0	0	0	512	515	0	516	39	2	
7	0	0	0	0	506	514	0	538	39	2	
8	0	0	0	0	508	513	1	559	38	2	
9	0	0	0	0	509	512	0	574	39	2	
10	0	0	0	0	507	512	0	576	39	2	
11	0	0	0	0	513	510	0	568	39	2	
12	0	0	0	0	503	510	0	555	39	2	
13	0	0	0	0	512	511	0	551	39	2	
14	0	0	0	0	510	512	0	545	39	2	
15	0	0	0	0	504	512	0	536	39	2	
0	0	0	0	0	515	510	1	520	39	2	
1	0	0	0	0	514	511	0	508	39	2	
2	0	0	0	0	506	511	0	503	39	2	
3	0	0	0	0	507	511	0	509	39	2	
4	0	0	0	0	512	511	1	521	39	2	
5	0	0	0	0	515	511	0	526	39	2	
6	0	0	0	0	515	510	0	519	39	2	
7	0	0	0	0	518	511	0	512	39	2	
8	0	0	0	0	509	512	1	502	39	2	
9	0	0	0	0	512	513	0	509	38	2	
10	0	0	0	0	505	513	0	493	39	2	
11	0	0	0	0	504	512	0	494	39	2	
12	0	0	0	0	506	512	1	505	39	2	
13	0	0	0	0	507	513	0	519	39	2	
14	0	0	0	0	507	513	0	532	39	2	
15	0	0	0	0	510	513	0	544	39	2	
0	0	0	0	0	505	513	0	559	39	2	
1	0	0	0	0	510	511	0	565	39	2	
2	0	0	0	0	513	513	0	564	39	2	
3	0	0	0	0	513	514	0	567	39	2	
4	0	0	0	0	507	515	1	575	39	2	
5	0	0	0	0	510	513	0	594	39	2	
6	0	0	0	0	522	514	0	596	39	2	
7	0	0	0	0	519	514	0	592	39	2	
8	0	0	0	0	510	513	0	581	39	2	
9	0	0	0	0	511	515	0	569	39	2	
10	0	0	0	0	511	514	0	558	39	2	
11	0	0	0	0	511	514	0	543	38	2	
12	0	0	0	0	510	514	1	526	39	2	
13	0	0	0	0	503	513	0	505	39	2	
14	0	0	0	0	501	513	0	487	39	2	
15	0	0	0	0	509	513	0	479	39	2	
0	0	0	0	0	504	513	1	481	39	2	
1	0	0	0	0	515	511	0	488	39	2	
2	0	0	0	0	512	512	0	504	39	2	
3	0	0	0	0	505	515	0	524	39	2	
4	0	0	0	0	513	515	1	540	39	2	
5	0	0	0	0	508	512	0	560	39	2	
6	0	0	0	0	509	515	0	540	39	2	
7	0	0	0	0	511	515	0	527	39	2	
8	0	0	0	0	515	514	1	517	39	2	
9	0	0	0	0	514	512	0	506	39	2	
10	0	0	0	0	512	512	0	510	39	2	
11	0	0	0	0	504	513	0	512	39	2	
12	0	0	0	0	511	511	1	516	39	2	
13	0	0	0	0	513	512	0	536	39	2	
14	0	0	0	0	509	512	0	559	39	2	
15	0	0	0	0	511	515	0	566	39	2	
0	0	0	0	0	502	515	1	558	39	2	
1	0	0	0	0	517	513	0	544	39	2	
2	0	0	0	0	512	512	0	525	39	2	
3	0	0	0	0	509	512	0	513	39	2	
4	0	0	0	0	511	511	0	511	39	2	
5	0	0	0	0	507	512	0	499	39	2	
6	0	0	0	0	514	512	0	499	39	2	
7	0	0	0	0	510	514	0	492	39	2	
8	0	0	0	0	516	513	1	477	38	2	
9	0	0	0	0	511	512	0	472	39	2	
10	0	0	0	0	507	511	0	476	39	2	
11	0	0	0	0	515	511	0	477	39	2	
12	0	0	0	0	508	511	0	462	38	2	
13	0	0	0	0	507	512	0	456	39	2	
14	0	0	0	0	505	513	0	457	39	2	
15	0	0	0	0	504	512	0	467	39	2	
0	0	0	0	0	516	513	1	478	39	2	
1	0	0	0	0	508	512	0	495	39	2	
2	0	0	0	0	506	512	0	512	39	2	
3	0	0	0	0	509	512	0	528	39	2	
4	0	0	0	0	506	512	1	534	39	2	
5	0	0	0	0	510	513	0	542	39	2	
6	0	0	0	0	512	514	0	545	39	2	
7	0	0	0	0	507	514	0	543	39	2	
8	0	0	0	0	513	513	1	528	39	2	
9	0	0	0	0	507	511	0	524	39	2	
10	0	0	0	0	513	510	0	527	39	2	
11	0	0	0	0	518	512	0	533	39	2	
12	0	0	0	0	512	512	0	537	38	2	
13	0	0	0	0	507	513	0	544	39	2	
14	0	0	0	0	518	514	0	552	39	2	
15	0	0	0	0	508	513	0	558	39	2	
0	0	0	0	0	504	512	1	566	39	2	
1	0	0	0	0	508	512	0	588	39	2	
2	0	0	0	0	504	513	0	610	39	2	
3	0	0	0	0	510	512	0	632	39	2	
4	0	0	0	0	508	511	0	638	39	2	
5	0	0	0	0	510	512	0	625	39	2	
6	0	0	0	0	517	513	0	601	39	2	
7	0	0	0	0	512	512	0	582	39	2	
8	0	0	0	0	514	512	0	566	39	2	
9	0	0	0	0	510	513	0	549	39	2	
10	0	0	0	0	509	515	0	540	39	2	
11	0	0	0	0	505	513	0	534	39	2	
12	0	0	0	0	511	514	0	524	39	2	
13	0	0	0	0	512	512	0	514	39	2	
14	0	0	0	0	513	512	0	505	39	2	
15	0	0	0	0	510	514	0	494	39	2	
0	0	0	0	0	503	514	1	474	38	2	
1	0	0	0	0	509	512	0	462	39	2	
2	0	0	0	0	513	512	0	464	39	2	
3	0	0	0	0	508	511	0	474	39	2	
4	0	0	0	0	505	512	1	469	39	2	
5	0	0	0	0	510	512	0	460	39	2	
6	0	0	0	0	519	512	0	464	39	2	
7	0	0	0	0	510	514	0	470	39	2	
8	0	0	0	0	512	512	0	476	39	2	
9	0	0	0	0	514	513	0	489	39	2	
10	0	0	0	0	508	514	0	497	39	2	
11	0	0	0	0	504	515	0	496	39	2	
12	0	0	0	0	509	516	1	485	38	2	
13	0	0	0	0	513	516	0	471	39	2	
14	0	0	0	0	513	515	0	460	39	2	
15	0	0	0	0	511	516	0	463	39	2	
0	0	0	0	0	506	517	0	473	39	2	
1	0	0	0	0	506	515	0	487	39	2	
2	0	0	0	0	510	515	0	504	39	2	
3	0	0	0	0	505	515	0	517	39	2	
4	0	0	0	0	515	514	0	522	39	2	
5	0	0	0	0	518	514	0	523	39	2	
6	0	0	0	0	507	514	0	522	39	2	
7	0	0	0	0	506	514	0	520	39	2	
8	0	0	0	0	511	514	1	502	39	2	
9	0	0	0	0	515	514	0	494	39	2	
10	0	0	0	0	515	512	0	498	39	2	
11	0	0	0	0	515	512	0	512	39	2	
12	0	0	0	0	512	511	1	508	39	2	
13	0	0	0	0	503	509	0	500	39	2	
14	0	0	0	0	505	509	0	496	39	2	
15	0	0	0	0	506	509	0	501	39	2	
0	0	0	0	0	504	509	1	503	39	2	
1	0	0	0	0	515	509	0	503	39	2	
2	0	0	0	0	511	511	0	495	39	2	
3	0	0	0	0	502	511	0	492	39	2	
4	0	0	0	0	505	512	1	497	39	2	
5	0	0	0	0	519	511	0	494	39	2	
6	0	0	0	0	513	511	0	483	39	2	
7	0	0	0	0	511	513	0	483	39	2	
8	0	0	0	0	508	511	0	487	39	2	
9	0	0	0	0	513	512	0	491	39	2	
10	0	0	0	0	518	510	0	487	39	2	
11	0	0	0	0	513	511	0	476	39	2	
12	0	0	0	0	506	512	1	464	39	2	
13	0	0	0	0	509	512	0	468	39	2	
14	0	0	0	0	506	513	0	474	39	2	
15	0	0	0	0	508	513	0	477	39	2	
0	0	0	0	0	506	512	0	469	39	2	
1	0	0	0	0	508	511	0	464	39	2	
2	0	0	0	0	507	511	0	479	39	2	
3	0	0	0	0	506	514	0	470	39	2	
4	0	0	0	0	508	513	1	469	39	2	
5	0	0	0	0	508	512	0	469	39	2	
6	0	0	0	0	512	512	0	472	39	2	
7	0	0	0	0	512	512	0	473	39	2	
8	0	0	0	0	509	513	1	468	39	2	
9	0	0	0	0	510	513	0	473	39	2	
10	0	0	0	0	516	512	0	490	39	2	
11	0	0	0	0	515	511	0	514	39	2	
12	0	0	0	0	510	512	0	528	38	2	
13	0	0	0	0	509	513	0	526	39	2	
14	0	0	0	0	514	515	0	522	39	2	
15	0	0	0	0	514	514	0	531	39	2	
0	0	0	0	0	511	515	1	541	38	2	
1	0	0	0	0	510	514	0	546	39	2	
2	0	0	0	0	507	513	0	534	39	2	
3	0	0	0	0	504	514	0	524	39	2	
4	0	0	0	0	502	513	1	515	39	2	
5	0	0	0	0	504	509	0	510	39	2	
6	0	0	0	0	508	511	0	506	39	2	
7	0	0	0	0	506	511	0	493	39	2	
8	0	0	0	0	514	512	1	477	39	2	
9	0	0	0	0	514	511	0	455	39	2	
10	0	0	0	0	518	513	0	445	39	2	
11	0	0	0	0	513	513	0	439	39	2	
12	0	0	0	0	509	514	1	431	39	2	
13	0	0	0	0	512	513	0	430	39	2	
14	0	0	0	0	509	514	0	431	39	2	
15	0	0	0	0	511	516	0	432	39	2	
0	0	0	0	0	509	515	0	434	39	2	
1	0	0	0	0	512	514	0	440	39	2	
2	0	0	0	0	509	515	0	446	39	2	
3	0	0	0	0	506	514	0	444	39	2	
4	0	0	0	0	513	514	1	439	39	2	
5	0	0	0	0	508	515	0	433	39	2	
6	0	0	0	0	511	513	0	428	39	2	
7	0	0	0	0	504	512	0	427	39	2	
8	0	0	0	0	509	511	0	443	39	2	
9	0	0	0	0	511	510	0	465	39	2	
10	0	0	0	0	511	508	0	468	39	2	
11	0	0	0	0	511	509	0	451	39	2	
12	0	0	0	0	509	510	0	440	39	2	
13	0	0	0	0	508	511	0	445	39	2	
14	0	0	0	0	516	513	0	456	39	2	
15	0	0	0	0	512	511	0	462	39	2	
0	0	0	0	0	514	511	1	460	39	2	
1	0	0	0	0	509	511	0	460	39	2	
2	0	0	0	0	507	512	0	458	39	2	
3	0	0	0	0	509	512	0	456	39	2	
4	0	0	0	0	504	512	1	450	39	2	
5	0	0	0	0	511	513	0	451	39	2	
6	0	0	0	0	505	515	0	462	39	2	
7	0	0	0	0	513	515	0	444	39	2	
8	0	0	0	0	511	515	0	436	39	2	
9	0	0	0	0	505	514	0	435	39	2	
10	0	0	0	0	511	513	0	447	39	2	
11	0	0	0	0	511	513	0	459	38	2	
12	0	0	0	0	520	513	0	472	38	2	
13	0	0	0	0	515	512	0	485	39	2	
14	0	0	0	0	515	511	0	502	39	2	
15	0	0	0	0	506	511	0	512	39	2	
0	0	0	0	0	512	512	1	503	39	2	
1	0	0	0	0	511	511	0	493	39	2	
2	0	0	0	0	512	513	0	480	39	2	
3	0	0	0	0	503	513	0	470	39	2	
4	0	0	0	0	506	513	0	460	39	2	
5	0	0	0	0	506	513	0	455	39	2	
6	0	0	0	0	505	512	0	448	39	2	
7	0	0	0	0	510	510	0	453	39	2	
8	0	0	0	0	512	510	0	478	39	2	
9	0	0	0	0	508	510	0	490	39	2	
10	0	0	0	0	510	512	0	492	39	2	
11	0	0	0	0	513	512	0	492	38	2	
12	0	0	0	0	513	512	1	493	39	2	
13	0	0	0	0	518	511	0	495	39	2	
14	0	0	0	0	513	511	0	492	39	2	
15	0	0	0	0	511	514	0	497	39	2	
0	0	0	0	0	507	512	0	500	39	2	
1	0	0	0	0	512	513	0	501	39	2	
2	0	0	0	0	508	512	0	512	39	2	
3	0	0	0	0	499	512	0	525	39	2	
4	0	0	0	0	508	510	0	534	39	2	
5	0	0	0	0	511	510	0	545	39	2	
6	0	0	0	0	508	511	0	550	39	2	
7	0	0	0	0	512	513	0	543	39	2	
8	0	0	0	0	507	513	1	530	39	2	
9	0	0	0	0	512	512	0	520	39	2	
10	0	0	0	0	504	512	0	514	39	2	
11	0	0	0	0	511	515	0	515	38	2	
12	0	0	0	0	513	515	1	514	39	2	
13	0	0	0	0	508	514	0	519	39	2	
14	0	0	0	0	513	512	0	518	39	2	
15	0	0	0	0	513	513	0	516	39	2	
0	0	0	0	0	519	515	1	512	38	2	
1	0	0	0	0	508	514	0	506	39	2	
2	0	0	0	0	511	513	0	505	39	2	
3	0	0	0	0	509	515	0	512	39	2	
4	0	0	0	0	504	513	1	520	39	2	
5	0	0	0	0	500	513	0	517	39	2	
6	0	0	0	0	506	515	0	505	39	2	
7	0	0	0	0	505	516	0	494	39	2	
8	0	0	0	0	506	515	1	488	39	2	
9	0	0	0	0	506	514	0	480	39	2	
10	0	0	0	0	513	517	0	468	39	2	
11	0	0	0	0	520	517	0	452	39	2	
12	0	0	0	0	515	516	1	445	38	2	
13	0	0	0	0	506	513	0	443	39	2	
14	0	0	0	0	518	515	0	441	39	2	
15	0	0	0	0	517	516	0	441	39	2	
0	0	0	0	0	515	514	0	441	39	2	
1	0	0	0	0	515	515	0	442	39	2	
2	0	0	0	0	512	514	0	440	39	2	
3	0	0	0	0	508	514	0	445	39	2	
4	0	0	0	0	516	513	1	446	39	2	
5	0	0	0	0	502	513	0	446	39	2	
6	0	0	0	0	507	513	0	443	39	2	
7	0	0	0	0	508	515	0	448	39	2	
8	0	0	0	0	500	514	0	455	39	2	
9	0	0	0	0	504	515	0	467	39	2	
10	0	0	0	0	501	514	0	481	39	2	
11	0	0	0	0	508	514	0	490	39	2	
12	0	0	0	0	515	514	0	504	39	2	
13	0	0	0	0	507	513	0	519	39	2	
14	0	0	0	0	514	512	0	542	39	2	
15	0	0	0	0	515	512	0	538	39	2	
0	0	0	0	0	511	510	0	545	39	2	
1	0	0	0	0	513	510	0	543	39	2	
2	0	0	0	0	509	510	0	539	39	2	
3	0	0	0	0	508	512	0	534	39	2	
4	0	0	0	0	505	512	0	530	39	2	
5	0	0	0	0	518	513	0	530	39	2	
6	0	0	0	0	509	514	0	532	39	2	
7	0	0	0	0	506	513	0	530	39	2	
8	0	0	0	0	504	512	1	526	39	2	
9	0	0	0	0	510	511	0	532	39	2	
10	0	0	0	0	507	512	0	542	39	2	
11	0	0	0	0	512	511	0	545	39	2	
12	0	0	0	0	503	512	0	547	38	2	
13	0	0	0	0	516	513	0	555	39	2	
14	0	0	0	0	519	511	0	551	39	2	
15	0	0	0	0	517	513	0	540	39	2	
0	0	0	0	0	510	512	0	527	39	2	
1	0	0	0	0	512	513	0	518	39	2	
2	0	0	0	0	512	513	0	511	39	2	
3	0	0	0	0	505	513	0	518	39	2	
4	0	0	0	0	507	511	1	530	39	2	
5	0	0	0	0	507	510	0	530	39	2	
6	0	0	0	0	513	508	0	530	39	2	
7	0	0	0	0	514	508	0	530	39	2	
8	0	0	0	0	512	509	1	534	39	2	
9	0	0	0	0	498	510	0	540	39	2	
10	0	0	0	0	507	511	0	545	39	2	
11	0	0	0	0	513	512	0	556	39	2	
12	0	0	0	0	513	512	1	560	39	2	
13	0	0	0	0	516	510	0	570	39	2	
14	0	0	0	0	512	512	0	571	39	2	
15	0	0	0	0	511	512	0	569	39	2	
0	0	0	0	0	509	512	1	563	39	2	
1	0	0	0	0	508	511	0	555	39	2	
2	0	0	0	0	508	509	0	546	39	2	
3	0	0	0	0	512	509	0	550	39	2	
4	0	0	0	0	507	509	0	554	38	2	
5	0	0	0	0	525	509	0	551	39	2	
6	0	0	0	0	503	511	0	546	39	2	
7	0	0	0	0	504	511	0	532	39	2	
8	0	0	0	0	511	512	1	509	39	2	
9	0	0	0	0	506	513	0	491	39	2	
10	0	0	0	0	503	513	0	482	39	2	
11	0	0	0	0	508	515	0	475	39	2	
12	0	0	0	0	508	513	0	474	39	2	
13	0	0	0	0	508	513	0	476	39	2	
14	0	0	0	0	514	512	0	482	39	2	
15	0	0	0	0	511	512	0	480	39	2	
0	0	0	0	0	515	512	0	467	39	2	
1	0	0	0	0	514	511	0	452	39	2	
2	0	0	0	0	516	512	0	448	38	2	
3	0	0	0	0	514	512	0	429	38	2	
4	0	0	0	0	505	513	1	435	39	2	
5	0	0	0	0	512	511	0	449	39	2	
6	0	0	0	0	510	513	0	460	39	2	
7	0	0	0	0	511	514	0	475	39	2	
8	0	0	0	0	508	513	1	498	39	2	
9	0	0	0	0	504	511	0	523	39	2	
10	0	0	0	0	501	513	0	541	39	2	
11	0	0	0	0	511	512	0	550	39	2	
12	0	0	0	0	509	513	1	564	39	2	
13	0	0	0	0	511	512	0	551	39	2	
14	0	0	0	0	511	511	0	552	39	2	
15	0	0	0	0	518	510	0	547	39	2	
0	0	0	0	0	515	510	0	538	39	2	
1	0	0	0	0	508	514	0	529	39	2	
2	0	0	0	0	509	514	0	533	39	2	
3	0	0	0	0	512	512	0	544	39	2	
4	0	0	0	0	511	510	0	557	39	2	
5	0	0	0	0	511	512	0	561	39	2	
6	0	0	0	0	504	512	0	561	39	2	
7	0	0	0	0	508	511	0	555	39	2	
8	0	0	0	0	508	511	0	549	39	2	
9	0	0	0	0	512	513	0	542	39	2	
